,distance,altitude,velocity,mass,time
0,0.0,0.0,0.0,1534.0,0.0
1,0.22562425887338333,0.15387124568223953,21.860958209930505,1534.0,0.025000625015625392
2,0.9035588148491781,0.6162564530968666,43.80076444616642,1523.2142857142858,0.050001250031250784
3,2.0354045326425694,1.3883188217878342,65.81996281376938,1523.2142857142858,0.07500187504687618
4,3.622773286113982,2.4712296426296234,87.92082453963671,1512.4285714285716,0.10000250006250157
5,5.6742936022891195,3.8561891689896584,110.11356130615047,1512.4285714285716,0.12500312507812697
6,8.196780225514916,5.536908719688654,132.39146774085643,1501.6428571428573,0.15000375009375236
7,11.193679806068708,7.511886451393366,154.75444040178593,1501.6428571428573,0.17500437510937775
8,14.668179146651648,9.78001058101654,177.2025709498807,1490.8571428571431,0.20000500012500314
9,18.62328037086993,12.340456597507,199.73607488027983,1490.8571428571431,0.22500562514062852
10,23.06184892168907,15.19262109696865,222.35525215315704,1480.071428571429,0.25000625015625394
11,27.986646098265897,18.336076591163874,245.0604636387054,1480.071428571429,0.27500687517187933
12,33.40035214004441,21.77053936943412,267.8521161523268,1469.2857142857147,0.3000075001875047
13,39.30558320510743,25.495845671743155,290.73065249195747,1469.2857142857147,0.3250081252031301
14,45.70490422885427,29.51193366572261,313.6965445524928,1458.5000000000005,0.3500087502187555
15,52.60083890259101,33.8188294172287,336.750288419324,1458.5000000000005,0.3750093752343809
16,59.99587757838163,38.416635766625404,359.89240078268296,1447.7142857142862,0.40001000025000627
17,67.8924836431162,43.30552339926362,383.1234162613736,1447.7142857142862,0.42501062526563166
18,76.29309873826625,48.4857235327363,406.4438853695642,1436.928571428572,0.45001125028125705
19,85.2001470930174,53.957521840929985,429.85437256820006,1436.928571428572,0.47501187529688244
20,94.61603904152206,59.72125335782766,453.3554411854215,1426.1428571428578,0.5000125003125079
21,104.5431738485327,65.77729802951217,476.9476661484589,1426.1428571428578,0.5250131253281333
22,114.98394255826084,72.12607719004154,500.6316425320179,1415.3571428571436,0.5500137503437587
23,125.94073034465995,78.76805051788688,524.4079732122332,1415.3571428571436,0.575014375359384
24,137.41591810995882,85.70371306687593,548.2772362776071,1404.5714285714294,0.6000150003750094
25,149.4118838896805,92.93359272181988,572.2400253904935,1404.5714285714294,0.6250156253906348
26,161.93100368578348,100.45824773237109,596.2968640807836,1393.7857142857151,0.6500162504062602
27,174.9756523546723,108.27826461941004,620.4483328409627,1393.7857142857151,0.6750168754218856
28,188.54820512241403,116.39425677061081,644.6949817641704,1383.000000000001,0.700017500437511
29,202.65103860674623,124.80686296895146,669.0374109291666,1383.000000000001,0.7250181254531364
30,217.28653178026713,133.51674614474177,693.4761253437574,1372.2142857142867,0.7500187504687618
31,232.45706266905424,142.5245897397399,718.011467300446,1372.2142857142867,0.7750193754843872
32,248.16501025328446,151.83109736442566,742.6439802698864,1361.4285714285725,0.8000200005000125
33,264.4127562542711,161.43699252605438,767.3740531984482,1361.4285714285725,0.8250206255156379
34,281.2026817216189,171.3430153876543,792.2020412504846,1350.6428571428582,0.8500212505312633
35,298.5371706992278,181.5499238371849,817.1284746359484,1350.6428571428582,0.8750218755468887
36,316.4186120525165,192.0584935620427,842.1538715522288,1339.857142857144,0.9000225005625141
37,334.8493993818938,202.86951707676053,867.278674778925,1339.857142857144,0.9250231255781395
38,353.83192360208574,213.9837985187769,892.5027757631564,1329.0714285714298,0.9500237505937649
39,373.3685729039353,225.40215288102627,917.8266343991371,1329.0714285714298,0.9750243756093903
40,393.4617418167005,237.12541061267257,943.2507404064296,1318.2857142857156,1.0000250006250158
41,414.11382698397256,249.15441449731588,968.7751599103067,1318.2857142857156,1.0250256256406411
42,435.3272178218403,261.49001359567046,994.3997985566542,1307.5000000000014,1.0500262506562665
43,457.1043022101902,274.13306606188416,1020.124926583993,1307.5000000000014,1.075026875671892
44,479.4474697492433,287.084440484643,1045.9508060822336,1296.7142857142871,1.1000275006875173
45,502.3591115767245,300.3450153321028,1071.8776805005466,1296.7142857142871,1.1250281257031427
46,525.8416252993184,313.91568135097623,1097.9067195503555,1285.928571428573,1.150028750718768
47,549.8974612035054,327.7973678186536,1124.0414366948955,1285.928571428573,1.1750293757343935
48,574.5291328504599,341.9910481534898,1150.2845792771254,1275.1428571428587,1.2000300007500189
49,599.7392468741112,356.4977565482259,1176.6438224739206,1275.1428571428587,1.2250306257656443
50,625.5306387323453,371.31866550818086,1203.1294783142266,1264.3571428571445,1.2500312507812696
51,651.9061706094058,386.45496901124716,1229.734091165228,1264.3571428571445,1.275031875796895
52,678.8685667612181,401.90778769925237,1256.4553994173898,1253.5714285714303,1.3000325008125204
53,706.4205194517442,417.6782296150923,1283.2920249979502,1253.5714285714303,1.3250331258281458
54,734.56471308156,433.7674038372934,1310.2447989698537,1242.785714285716,1.3500337508437712
55,763.3038458389206,450.1764326505363,1337.3141044106026,1242.785714285716,1.3750343758593966
56,792.6406217865933,466.90644677355886,1364.500589795964,1232.0000000000018,1.400035000875022
57,822.5777651381397,483.95859329774976,1391.8054968803667,1232.0000000000018,1.4250356258906474
58,853.1180233237628,501.33403718471527,1419.2298811859757,1221.2142857142876,1.4500362509062728
59,884.2641624235304,519.0339584723115,1446.774532573776,1221.2142857142876,1.4750368759218981
60,916.0189624412279,537.0595493540168,1474.4402630916215,1210.4285714285734,1.5000375009375235
61,948.3852225550862,555.4120169989765,1502.2281157139198,1210.4285714285734,1.525038125953149
62,981.3657630876505,574.0925844758749,1530.1391494026607,1199.6428571428592,1.5500387509687743
63,1014.9634259347911,593.10249081254,1558.1744456790493,1199.6428571428592,1.5750393759843997
64,1049.1810762962182,612.4429918155074,1586.3352179426322,1188.857142857145,1.600040001000025
65,1084.021603500628,632.1153603680432,1614.6225615929131,1188.857142857145,1.6250406260156505
66,1119.4879189712017,652.1208851076663,1643.0375883738245,1178.0714285714307,1.6500412510312759
67,1155.58295752375,672.4608710333705,1671.581449925949,1178.0714285714307,1.6750418760469012
68,1192.3096779281127,693.1366396695375,1700.2553162818622,1167.2857142857165,1.7000425010625266
69,1229.6710633725145,714.1495291814208,1729.0603762536973,1167.2857142857165,1.725043126078152
70,1267.6701219341437,735.5008945167065,1757.9978378314904,1156.5000000000023,1.7500437510937774
71,1306.3098870563445,757.1921075545251,1787.0689285926037,1156.5000000000023,1.7750443761094028
72,1345.5934179350747,779.2245571762323,1816.274855270102,1145.714285714288,1.8000450011250282
73,1385.5237960810682,801.5996472537518,1845.6165903136641,1145.714285714288,1.8250456261406536
74,1426.1041257537167,824.3187967538834,1875.095368135874,1134.9285714285738,1.850046251156279
75,1467.3375379284496,847.3834418654442,1904.7124695120494,1134.9285714285738,1.8750468761719044
76,1509.2271907844847,870.7950361855328,1934.4691957280338,1124.1428571428596,1.9000475011875297
77,1551.7762702005111,894.5550508759916,1964.366869019375,1124.1428571428596,1.9250481262031551
78,1594.9879902586729,918.6649748384953,1994.4068330225934,1113.3571428571454,1.9500487512187805
79,1638.865593757184,943.1263149380684,2024.5904532389065,1113.3571428571454,1.975049376234406
80,1683.4123519184936,967.940595716238,2054.919003742413,1102.5714285714312,2.0000500012500315
81,1728.631562181259,993.1093580946326,2085.393757984361,1102.5714285714312,2.025050626265657
82,1774.526550949583,1018.6341608129442,2116.0161304606145,1091.785714285717,2.0500512512812823
83,1821.100675079243,1044.516581185162,2146.7875600329685,1091.785714285717,2.0750518762969077
84,1868.3573224213499,1070.7582153007388,2177.7095091350607,1081.0000000000027,2.100052501312533
85,1916.2999123762452,1097.3606782853603,2208.7834642916596,1081.0000000000027,2.1250531263281585
86,1964.931896458022,1124.3256044983864,2240.010936652445,1070.2142857142885,2.150053751343784
87,2014.2567585057297,1151.6546476185322,2271.393394281201,1070.2142857142885,2.1750543763594092
88,2064.278011738326,1179.3494789004326,2302.9321600216877,1059.4285714285743,2.2000550013750346
89,2114.9992001596647,1207.4117879234254,2334.62878238147,1059.4285714285743,2.22505562639066
90,2166.4239017544396,1235.8432842716575,2366.484853210274,1048.64285714286,2.2500562514062854
91,2218.5557290901743,1264.6456978097558,2398.501990900453,1048.64285714286,2.275056876421911
92,2271.3983299314655,1293.8207789435983,2430.681840983958,1037.8571428571458,2.300057501437536
93,2324.9553878668685,1323.370298936963,2463.026076746241,1037.8571428571458,2.3250581264531616
94,2379.230622948847,1353.2960501611233,2495.536399857653,1027.0714285714316,2.350058751468787
95,2434.2277923472034,1383.5998464301229,2528.214541022921,1027.0714285714316,2.3750593764844123
96,2489.9506910164296,1414.2835232838988,2561.0622606493157,1016.2857142857173,2.4000600015000377
97,2546.403152377429,1445.3489383272827,2594.0813495341545,1016.2857142857173,2.425060626515663
98,2603.5890490140605,1476.79797154665,2627.273629572278,1005.500000000003,2.4500612515312885
99,2661.5122933849902,1508.6325256377459,2660.640954484214,1005.500000000003,2.475061876546914
100,2720.176838551329,1540.8545263670385,2694.1852105657267,994.7142857142886,2.5000625015625393
101,2779.5866766368517,1573.465921677649,2727.9079689159216,994.7142857142886,2.5250631265781647
102,2839.745827891733,1606.468675609678,2761.810491926371,983.9285714285743,2.55006375159379
103,2900.658347444534,1639.8647719994187,2795.8946664477226,983.9285714285743,2.5750643766094155
104,2962.328332560813,1673.6562183871865,2830.1624454406733,973.14285714286,2.600065001625041
105,3024.75992339361,1707.8450464121997,2864.6158155868034,973.14285714286,2.6250656266406662
106,3087.9573037506716,1742.4333121404052,2899.2567980766303,962.3571428571456,2.6500662516562916
107,3151.9247018789583,1777.4230964966118,2934.087449420863,962.3571428571456,2.675066876671917
108,3216.6663912669414,1812.8165056295693,2969.109862285663,951.5714285714313,2.7000675016875424
109,3282.1866914652737,1848.6156713031232,3004.326166352771,951.5714285714313,2.725068126703168
110,3348.489968926378,1884.8227513507009,3039.738529205376,940.785714285717,2.750068751718793
111,3415.5806378635775,1921.4399300590158,3075.3491572406538,940.785714285717,2.7750693767344186
112,3483.4631611303566,1958.469418644905,3111.160296609942,930.0000000000026,2.800070001750044
113,3552.1420511203974,1995.9134556502104,3147.1742341875392,930.0000000000026,2.8250706267656693
114,3621.6218706890436,2033.7743074595928,3183.3932985691877,919.2142857142883,2.8500712517812947
115,3691.907234096874,2072.054268743843,3219.819861101324,919.2142857142883,2.87507187679692
116,3763.0028079760914,2110.755662944168,3256.456336942236,908.428571428574,2.9000725018125455
117,3834.913312320448,2149.880842767656,3293.30518615631,908.428571428574,2.925073126828171
118,3907.6435214994644,2189.432190719992,3330.3689148426142,897.6428571428596,2.9500737518437963
119,3981.198265297735,2229.4121196120977,3367.6500762991054,897.6428571428596,2.9750743768594217
120,4055.58242998011,2269.8230730965734,3405.151272223814,886.8571428571453,3.000075001875047
121,4130.800959383622,2310.667526241392,3442.875153954414,886.8571428571453,3.0250756268906724
122,4206.858856037002,2351.9479860812426,3480.8244237476624,876.0714285714309,3.050076251906298
123,4283.761182308714,2393.6669922173023,3519.0018361002344,876.0714285714309,3.075076876921923
124,4361.513061584444,2435.8271173983812,3557.4101991125794,865.2857142857166,3.1000775019375486
125,4440.119679474998,2478.4309681504965,3596.052375897476,865.2857142857166,3.125078126953174
126,4519.5862850556605,2521.481185425073,3634.9312860350483,854.5000000000023,3.1500787519687994
127,4599.918192138033,2564.980445213616,3674.0499070760898,854.5000000000023,3.1750793769844248
128,4681.120780575474,2608.9314592555165,3713.411276095628,843.7142857142879,3.20008000200005
129,4763.199497603257,2653.3369757048786,3753.0184912987397,843.7142857142879,3.2250806270156755
130,4846.159859214655,2698.199779842049,3792.8747136807465,832.9285714285736,3.250081252031301
131,4930.007451574153,2743.5226948074996,3832.983168744001,832.9285714285736,3.2750818770469263
132,5014.747932469104,2789.308582343161,3873.347148273584,822.1428571428593,3.3000825020625517
133,5100.387032801141,2835.560343567282,3913.9700121743545,822.1428571428593,3.325083127078177
134,5186.930558118731,2882.2809197604656,3954.8551903719012,811.3571428571449,3.3500837520938025
135,5274.384390192337,2929.473293185234,3996.0061847800753,811.3571428571449,3.375084377109428
136,5362.754488633682,2977.1404879279435,4037.4265713379145,800.5714285714306,3.4000850021250533
137,5452.046892560686,3025.285570733249,4079.120002118905,800.5714285714306,3.4250856271406787
138,5542.2677223097135,3073.9116519466043,4121.090207515686,789.7857142857163,3.450086252156304
139,5633.4231811968475,3123.0218863636255,4163.340998503432,789.7857142857163,3.4750868771719294
140,5725.519557329962,3172.6194742172956,4198.686990541912,780.7976190476211,3.500087502187555
141,5817.929228512234,3222.3663260675967,4198.230548258772,780.7976190476211,3.52508812720318
142,5910.336803072429,3272.0925922580063,4197.774348191074,780.7976190476211,3.5500887522188056
143,6002.740139407466,3321.7971210367978,4197.123624892512,780.7976190476211,3.575089377234431
144,6095.1371006724385,3371.4787637852132,4196.473482666563,217.0,3.6000900022500564
145,6187.527696772073,3421.1375269815326,4195.823920671588,217.0,3.6250906272656818
146,6279.911937593407,3470.773417111486,4195.17493806775,217.0,3.650091252281307
147,6372.289833005836,3520.386440631002,4194.526534016997,217.0,3.6750918772969325
148,6464.661392861134,3569.9766039960086,4193.878707683066,217.0,3.700092502312558
149,6557.026626993498,3619.543913640082,4193.231458231477,217.0,3.7250931273281833
150,6649.38554521958,3669.088375981897,4192.584784829525,217.0,3.7500937523438087
151,6741.7381573385255,3718.609997432679,4191.938686646285,217.0,3.775094377359434
152,6834.084473131994,3768.1087843962014,4191.293162852596,217.0,3.8000950023750595
153,6926.424502364215,3817.5847432501614,4190.648212621068,217.0,3.825095627390685
154,7018.758254782,3867.0378803648055,4190.003835126071,217.0,3.8500962524063103
155,7111.085740114798,3916.468202099204,4189.360029543734,217.0,3.8750968774219356
156,7203.406968074712,3965.8757147938013,4188.71679505194,217.0,3.900097502437561
157,7295.72194835654,4015.260424785316,4188.074130830321,217.0,3.9250981274531864
158,7388.030690637817,4064.622338388115,4187.432036060259,217.0,3.950098752468812
159,7480.333204578834,4113.96146190539,4186.790509924871,217.0,3.975099377484437
160,7572.62949982268,4163.2778016366065,4186.149551609021,217.0,4.000100002500063
161,7664.919585995277,4212.571363855153,4185.509160299301,217.0,4.025100627515688
162,7757.203472705413,4261.842154826969,4184.869335184035,217.0,4.050101252531314
163,7849.481169544772,4311.090180806816,4184.230075453275,217.0,4.075101877546939
164,7941.75268608797,4360.31544803828,4183.591380298793,217.0,4.100102502562565
165,8034.0180318925895,4409.517962742597,4182.953248914082,217.0,4.12510312757819
166,8126.277216499213,4458.697731137276,4182.315680494348,217.0,4.150103752593815
167,8218.530249431453,4507.854759432375,4181.678674236508,217.0,4.175104377609441
168,8310.777140195989,4556.989053804427,4181.0422293391875,217.0,4.200105002625066
169,8403.017898282598,4606.100620437413,4180.4063450027115,217.0,4.2251056276406915
170,8495.25253316419,4655.189465492964,4179.771020429107,217.0,4.250106252656317
171,8587.481054296843,4704.255595128983,4179.136254822096,217.0,4.275106877671942
172,8679.703471119827,4753.299015473574,4178.502047387091,217.0,4.300107502687568
173,8771.91979305565,4802.319732658565,4177.868397331194,217.0,4.325108127703193
174,8864.130029510077,4851.317752793431,4177.235303863186,217.0,4.3501087527188185
175,8956.334189872172,4900.2930819913745,4176.602766193535,217.0,4.375109377734444
176,9048.53228351433,4949.245726324618,4175.970783534379,217.0,4.400110002750069
177,9140.724319792305,4998.175691880286,4175.3393550995315,217.0,4.425110627765695
178,9232.91030804525,5047.0829847157,4174.708480104475,217.0,4.45011125278132
179,9325.090257595735,5095.967610884458,4174.078157766354,217.0,4.475111877796945
180,9417.264177749805,5144.82957642898,4173.448387303976,217.0,4.500112502812571
181,9509.432077796984,5193.668887369335,4172.819167937806,217.0,4.525113127828196
182,9601.593967010323,5242.485549721867,4172.190498889961,217.0,4.550113752843822
183,9693.749854646434,5291.279569491744,4171.562379384211,217.0,4.575114377859447
184,9785.89974994551,5340.0509526617825,4170.934808645968,217.0,4.600115002875072
185,9878.04366213137,5388.799705207348,4170.307785902288,217.0,4.625115627890698
186,9970.181600411479,5437.525833103806,4169.681310381866,217.0,4.650116252906323
187,10062.313573976993,5486.22934229672,4169.055381315033,217.0,4.6751168779219485
188,10154.439592002787,5534.910238727927,4168.4299979337475,217.0,4.700117502937574
189,10246.559663647475,5583.568528316915,4167.805159471599,217.0,4.725118127953199
190,10338.673798053449,5632.204216994345,4167.180865163801,217.0,4.750118752968825
191,10430.78200434692,5680.817310657352,4166.557114247185,217.0,4.77511937798445
192,10522.884291637944,5729.40781519562,4165.933905960202,217.0,4.8001200030000755
193,10614.980669020439,5777.975736495107,4165.311239542911,217.0,4.825120628015701
194,10707.071145572241,5826.521080411971,4164.689114236985,217.0,4.850121253031326
195,10799.15573035512,5875.043852809817,4164.067529285701,217.0,4.875121878046952
196,10891.234432414805,5923.544059533626,4163.446483933939,217.0,4.900122503062577
197,10983.307260781037,5972.021706413478,4162.825977428175,217.0,4.925123128078202
198,11075.374224467583,6020.47679926455,4162.206009016482,217.0,4.950123753093828
199,11167.435332472272,6068.909343902022,4161.586577948525,217.0,4.975124378109453
200,11259.490593777022,6117.319346118718,4160.967683475553,217.0,5.000125003125079
201,11351.540017347881,6165.706811692566,4160.349324850403,217.0,5.025125628140704
202,11443.58361213505,6214.071746405214,4159.731501327491,217.0,5.050126253156329
203,11535.621387072912,6262.414156012237,4159.114212162811,217.0,5.075126878171955
204,11627.65335108007,6310.734046261758,4158.497456613927,217.0,5.10012750318758
205,11719.679513059371,6359.031422890723,4157.881233939978,217.0,5.1251281282032055
206,11811.699881897943,6407.306291628629,4157.265543401665,217.0,5.150128753218831
207,11903.714466467221,6455.558658182621,4156.650384261256,217.0,5.175129378234456
208,11995.723275622977,6503.788528256118,4156.035755782575,217.0,5.200130003250082
209,12087.726318205352,6551.995907537639,4155.421657231002,217.0,5.225130628265707
210,12179.723603038887,6600.1808017119765,4154.808087873474,217.0,5.2501312532813325
211,12271.71513893255,6648.343216445297,4154.195046978469,217.0,5.275131878296958
212,12363.700934679779,6696.483157381415,4153.582533816018,217.0,5.300132503312583
213,12455.680999058484,6744.600630175322,4152.970547657691,217.0,5.325133128328209
214,12547.655340831112,6792.695640455931,4152.359087776595,217.0,5.350133753343834
215,12639.623968744656,6840.768193837255,4151.7481534473745,217.0,5.375134378359459
216,12731.586891530678,6888.8182959370315,4151.137743946204,217.0,5.400135003375085
217,12823.544117905365,6936.845952350646,4150.5278585507895,217.0,5.42513562839071
218,12915.495656569536,6984.851168666035,4149.918496540356,217.0,5.450136253406336
