,distance,altitude,velocity,mass,time
0,0.0,0.0,0.0,1534.0,0.0
1,4.467086119339292,0.15149971842765808,89.60476235527628,1534.0,0.1000100010001
2,17.953448064244693,0.6119576282799244,180.49725422843295,1490.857142857143,0.2000200020002
3,40.589423329260164,1.3905117586255074,272.7137376728356,1490.857142857143,0.3000300030003
4,72.50903433452164,2.496575489640236,366.30193737021517,1447.7142857142858,0.4000400040004
5,113.86235820159906,3.6984250880777836,461.35704905817335,1447.7142857142858,0.5000500050005
6,164.79915571754577,4.823578532785177,557.876333704499,1404.5714285714287,0.6000600060006
7,225.46692812285775,5.813896410167217,655.8953280722365,1404.5714285714287,0.7000700070007
8,296.016479696398,6.619639445096254,755.447315725273,1361.4285714285716,0.8000800080008
9,376.60158281351596,7.19706866890192,856.5601569454055,1361.4285714285716,0.9000900090009001
10,467.3785624209623,7.506919853389263,959.2568664425382,1318.2857142857144,1.000100010001
11,568.5055081795061,7.5133775398135185,1063.5504515240643,1318.2857142857144,1.1001100110011
12,680.1424140767457,7.183356035500765,1169.4881472034504,1275.1428571428573,1.2001200120012
13,802.4631588921235,6.485913749784231,1277.2839480814885,1275.1428571428573,1.3001300130013
14,935.6541312684774,5.391798488795757,1386.9374338172954,1232.0000000000002,1.4001400140014
15,1079.901096274864,3.873182937502861,1498.4832340890468,1232.0000000000002,1.5001500150015001
16,1235.3952759286067,1.9033886529505253,1611.9160256832538,1188.8571428571431,1.6001600160016
17,1402.3164435664353,0.10348135977983475,1727.0482394985816,1188.8571428571431,1.7001700170017
18,1431.0994168276316,-0.15538712963461876,1746.4106150716204,1181.666666666667,1.8001800180018002
19,1431.0994168276316,-0.15538712963461876,0.0,1181.666666666667,1.9001900190019
20,1431.0994168276316,-0.15538712963461876,0.0,1181.666666666667,2.000200020002
21,1431.0994168276316,-0.15538712963461876,0.0,1181.666666666667,2.1002100210021
22,1431.0994168276316,-0.15538712963461876,0.0,1181.666666666667,2.2002200220022
23,1431.0994168276316,-0.15538712963461876,0.0,1181.666666666667,2.3002300230023
24,1431.0994168276316,-0.15538712963461876,0.0,1181.666666666667,2.4002400240024
25,1431.0994168276316,-0.15538712963461876,0.0,1181.666666666667,2.5002500250025
26,1431.0994168276316,-0.15538712963461876,0.0,1181.666666666667,2.6002600260026
27,1431.0994168276316,-0.15538712963461876,0.0,1181.666666666667,2.7002700270027002
28,1431.0994168276316,-0.15538712963461876,0.0,1181.666666666667,2.8002800280028
29,1431.0994168276316,-0.15538712963461876,0.0,1181.666666666667,2.9002900290029
30,1431.0994168276316,-0.15538712963461876,0.0,1181.666666666667,3.0003000300030003
31,1431.0994168276316,-0.15538712963461876,0.0,1181.666666666667,3.1003100310031
32,1431.0994168276316,-0.15538712963461876,0.0,1181.666666666667,3.2003200320032
33,1431.0994168276316,-0.15538712963461876,0.0,1181.666666666667,3.3003300330033003
34,1431.0994168276316,-0.15538712963461876,0.0,1181.666666666667,3.4003400340034
35,1431.0994168276316,-0.15538712963461876,0.0,1181.666666666667,3.5003500350035
36,1431.0994168276316,-0.15538712963461876,0.0,1181.666666666667,3.6003600360036003
37,1431.0994168276316,-0.15538712963461876,0.0,1181.666666666667,3.7003700370037
38,1431.0994168276316,-0.15538712963461876,0.0,1181.666666666667,3.8003800380038
39,1431.0994168276316,-0.15538712963461876,0.0,1181.666666666667,3.9003900390039004
40,1431.0994168276316,-0.15538712963461876,0.0,1181.666666666667,4.000400040004
41,1431.0994168276316,-0.15538712963461876,0.0,1181.666666666667,4.1004100410041
42,1431.0994168276316,-0.15538712963461876,0.0,1181.666666666667,4.2004200420042
43,1431.0994168276316,-0.15538712963461876,0.0,1181.666666666667,4.3004300430043
44,1431.0994168276316,-0.15538712963461876,0.0,1181.666666666667,4.4004400440044
45,1431.0994168276316,-0.15538712963461876,0.0,1181.666666666667,4.5004500450045
46,1431.0994168276316,-0.15538712963461876,0.0,1181.666666666667,4.6004600460046
47,1431.0994168276316,-0.15538712963461876,0.0,1181.666666666667,4.7004700470047
48,1431.0994168276316,-0.15538712963461876,0.0,1181.666666666667,4.8004800480048
49,1431.0994168276316,-0.15538712963461876,0.0,1181.666666666667,4.9004900490049
50,1431.0994168276316,-0.15538712963461876,0.0,1181.666666666667,5.000500050005
51,1431.0994168276316,-0.15538712963461876,0.0,1181.666666666667,5.1005100510051005
52,1431.0994168276316,-0.15538712963461876,0.0,1181.666666666667,5.2005200520052
53,1431.0994168276316,-0.15538712963461876,0.0,1181.666666666667,5.3005300530053
54,1431.0994168276316,-0.15538712963461876,0.0,1181.666666666667,5.4005400540054005
55,1431.0994168276316,-0.15538712963461876,0.0,1181.666666666667,5.5005500550055
56,1431.0994168276316,-0.15538712963461876,0.0,1181.666666666667,5.6005600560056
57,1431.0994168276316,-0.15538712963461876,0.0,1181.666666666667,5.7005700570057005
58,1431.0994168276316,-0.15538712963461876,0.0,1181.666666666667,5.8005800580058
59,1431.0994168276316,-0.15538712963461876,0.0,1181.666666666667,5.9005900590059
60,1431.0994168276316,-0.15538712963461876,0.0,1181.666666666667,6.0006000600060005
61,1431.0994168276316,-0.15538712963461876,0.0,1181.666666666667,6.1006100610061
62,1431.0994168276316,-0.15538712963461876,0.0,1181.666666666667,6.2006200620062
63,1431.0994168276316,-0.15538712963461876,0.0,1181.666666666667,6.300630063006301
64,1431.0994168276316,-0.15538712963461876,0.0,1181.666666666667,6.4006400640064
65,1431.0994168276316,-0.15538712963461876,0.0,1181.666666666667,6.5006500650065
66,1431.0994168276316,-0.15538712963461876,0.0,1181.666666666667,6.600660066006601
67,1431.0994168276316,-0.15538712963461876,0.0,1181.666666666667,6.7006700670067
68,1431.0994168276316,-0.15538712963461876,0.0,1181.666666666667,6.8006800680068
69,1431.0994168276316,-0.15538712963461876,0.0,1181.666666666667,6.900690069006901
70,1431.0994168276316,-0.15538712963461876,0.0,1181.666666666667,7.000700070007
71,1431.0994168276316,-0.15538712963461876,0.0,1181.666666666667,7.1007100710071
72,1431.0994168276316,-0.15538712963461876,0.0,1181.666666666667,7.200720072007201
73,1431.0994168276316,-0.15538712963461876,0.0,1181.666666666667,7.3007300730073
74,1431.0994168276316,-0.15538712963461876,0.0,1181.666666666667,7.4007400740074
75,1431.0994168276316,-0.15538712963461876,0.0,1181.666666666667,7.500750075007501
76,1431.0994168276316,-0.15538712963461876,0.0,1181.666666666667,7.6007600760076
77,1431.0994168276316,-0.15538712963461876,0.0,1181.666666666667,7.7007700770077
78,1431.0994168276316,-0.15538712963461876,0.0,1181.666666666667,7.800780078007801
79,1431.0994168276316,-0.15538712963461876,0.0,1181.666666666667,7.9007900790079
80,1431.0994168276316,-0.15538712963461876,0.0,1181.666666666667,8.000800080008
81,1431.0994168276316,-0.15538712963461876,0.0,1181.666666666667,8.1008100810081
82,1431.0994168276316,-0.15538712963461876,0.0,1181.666666666667,8.2008200820082
83,1431.0994168276316,-0.15538712963461876,0.0,1181.666666666667,8.3008300830083
84,1431.0994168276316,-0.15538712963461876,0.0,1181.666666666667,8.4008400840084
85,1431.0994168276316,-0.15538712963461876,0.0,1181.666666666667,8.5008500850085
86,1431.0994168276316,-0.15538712963461876,0.0,1181.666666666667,8.6008600860086
87,1431.0994168276316,-0.15538712963461876,0.0,1181.666666666667,8.7008700870087
88,1431.0994168276316,-0.15538712963461876,0.0,1181.666666666667,8.8008800880088
89,1431.0994168276316,-0.15538712963461876,0.0,1181.666666666667,8.9008900890089
90,1431.0994168276316,-0.15538712963461876,0.0,1181.666666666667,9.000900090009
91,1431.0994168276316,-0.15538712963461876,0.0,1181.666666666667,9.1009100910091
92,1431.0994168276316,-0.15538712963461876,0.0,1181.666666666667,9.2009200920092
93,1431.0994168276316,-0.15538712963461876,0.0,1181.666666666667,9.3009300930093
94,1431.0994168276316,-0.15538712963461876,0.0,1181.666666666667,9.4009400940094
95,1431.0994168276316,-0.15538712963461876,0.0,1181.666666666667,9.5009500950095
96,1431.0994168276316,-0.15538712963461876,0.0,1181.666666666667,9.6009600960096
97,1431.0994168276316,-0.15538712963461876,0.0,1181.666666666667,9.7009700970097
98,1431.0994168276316,-0.15538712963461876,0.0,1181.666666666667,9.8009800980098
99,1431.0994168276316,-0.15538712963461876,0.0,1181.666666666667,9.900990099009901
100,1431.0994168276316,-0.15538712963461876,0.0,1181.666666666667,10.00100010001
101,1431.0994168276316,-0.15538712963461876,0.0,1181.666666666667,10.1010101010101
102,1431.0994168276316,-0.15538712963461876,0.0,1181.666666666667,10.201020102010201
103,1431.0994168276316,-0.15538712963461876,0.0,1181.666666666667,10.3010301030103
104,1431.0994168276316,-0.15538712963461876,0.0,1181.666666666667,10.4010401040104
105,1431.0994168276316,-0.15538712963461876,0.0,1181.666666666667,10.501050105010501
106,1431.0994168276316,-0.15538712963461876,0.0,1181.666666666667,10.6010601060106
107,1431.0994168276316,-0.15538712963461876,0.0,1181.666666666667,10.7010701070107
108,1431.0994168276316,-0.15538712963461876,0.0,1181.666666666667,10.801080108010801
109,1431.0994168276316,-0.15538712963461876,0.0,1181.666666666667,10.9010901090109
110,1431.0994168276316,-0.15538712963461876,0.0,1181.666666666667,11.001100110011
111,1431.0994168276316,-0.15538712963461876,0.0,1181.666666666667,11.101110111011101
112,1431.0994168276316,-0.15538712963461876,0.0,1181.666666666667,11.2011201120112
113,1431.0994168276316,-0.15538712963461876,0.0,1181.666666666667,11.3011301130113
114,1431.0994168276316,-0.15538712963461876,0.0,1181.666666666667,11.401140114011401
115,1431.0994168276316,-0.15538712963461876,0.0,1181.666666666667,11.5011501150115
116,1431.0994168276316,-0.15538712963461876,0.0,1181.666666666667,11.6011601160116
117,1431.0994168276316,-0.15538712963461876,0.0,1181.666666666667,11.701170117011701
118,1431.0994168276316,-0.15538712963461876,0.0,1181.666666666667,11.8011801180118
119,1431.0994168276316,-0.15538712963461876,0.0,1181.666666666667,11.9011901190119
120,1431.0994168276316,-0.15538712963461876,0.0,1181.666666666667,12.001200120012001
121,1431.0994168276316,-0.15538712963461876,0.0,1181.666666666667,12.1012101210121
122,1431.0994168276316,-0.15538712963461876,0.0,1181.666666666667,12.2012201220122
123,1431.0994168276316,-0.15538712963461876,0.0,1181.666666666667,12.301230123012301
124,1431.0994168276316,-0.15538712963461876,0.0,1181.666666666667,12.4012401240124
125,1431.0994168276316,-0.15538712963461876,0.0,1181.666666666667,12.5012501250125
126,1431.0994168276316,-0.15538712963461876,0.0,1181.666666666667,12.601260126012601
127,1431.0994168276316,-0.15538712963461876,0.0,1181.666666666667,12.7012701270127
128,1431.0994168276316,-0.15538712963461876,0.0,1181.666666666667,12.8012801280128
129,1431.0994168276316,-0.15538712963461876,0.0,1181.666666666667,12.901290129012901
130,1431.0994168276316,-0.15538712963461876,0.0,1181.666666666667,13.001300130013
131,1431.0994168276316,-0.15538712963461876,0.0,1181.666666666667,13.1013101310131
132,1431.0994168276316,-0.15538712963461876,0.0,1181.666666666667,13.201320132013201
133,1431.0994168276316,-0.15538712963461876,0.0,1181.666666666667,13.3013301330133
134,1431.0994168276316,-0.15538712963461876,0.0,1181.666666666667,13.4013401340134
135,1431.0994168276316,-0.15538712963461876,0.0,1181.666666666667,13.501350135013501
136,1431.0994168276316,-0.15538712963461876,0.0,1181.666666666667,13.6013601360136
137,1431.0994168276316,-0.15538712963461876,0.0,1181.666666666667,13.7013701370137
138,1431.0994168276316,-0.15538712963461876,0.0,1181.666666666667,13.801380138013801
139,1431.0994168276316,-0.15538712963461876,0.0,1181.666666666667,13.9013901390139
140,1431.0994168276316,-0.15538712963461876,0.0,1181.666666666667,14.001400140014
141,1431.0994168276316,-0.15538712963461876,0.0,1181.666666666667,14.101410141014101
142,1431.0994168276316,-0.15538712963461876,0.0,1181.666666666667,14.2014201420142
143,1431.0994168276316,-0.15538712963461876,0.0,1181.666666666667,14.3014301430143
144,1431.0994168276316,-0.15538712963461876,0.0,1181.666666666667,14.401440144014401
145,1431.0994168276316,-0.15538712963461876,0.0,1181.666666666667,14.5014501450145
146,1431.0994168276316,-0.15538712963461876,0.0,1181.666666666667,14.6014601460146
147,1431.0994168276316,-0.15538712963461876,0.0,1181.666666666667,14.701470147014701
148,1431.0994168276316,-0.15538712963461876,0.0,1181.666666666667,14.8014801480148
149,1431.0994168276316,-0.15538712963461876,0.0,1181.666666666667,14.9014901490149
150,1431.0994168276316,-0.15538712963461876,0.0,1181.666666666667,15.001500150015001
151,1431.0994168276316,-0.15538712963461876,0.0,1181.666666666667,15.1015101510151
152,1431.0994168276316,-0.15538712963461876,0.0,1181.666666666667,15.2015201520152
153,1431.0994168276316,-0.15538712963461876,0.0,1181.666666666667,15.301530153015301
154,1431.0994168276316,-0.15538712963461876,0.0,1181.666666666667,15.4015401540154
155,1431.0994168276316,-0.15538712963461876,0.0,1181.666666666667,15.5015501550155
156,1431.0994168276316,-0.15538712963461876,0.0,1181.666666666667,15.601560156015601
157,1431.0994168276316,-0.15538712963461876,0.0,1181.666666666667,15.7015701570157
158,1431.0994168276316,-0.15538712963461876,0.0,1181.666666666667,15.8015801580158
159,1431.0994168276316,-0.15538712963461876,0.0,1181.666666666667,15.901590159015901
160,1431.0994168276316,-0.15538712963461876,0.0,1181.666666666667,16.001600160016
161,1431.0994168276316,-0.15538712963461876,0.0,1181.666666666667,16.1016101610161
162,1431.0994168276316,-0.15538712963461876,0.0,1181.666666666667,16.2016201620162
163,1431.0994168276316,-0.15538712963461876,0.0,1181.666666666667,16.301630163016302
164,1431.0994168276316,-0.15538712963461876,0.0,1181.666666666667,16.4016401640164
165,1431.0994168276316,-0.15538712963461876,0.0,1181.666666666667,16.5016501650165
166,1431.0994168276316,-0.15538712963461876,0.0,1181.666666666667,16.6016601660166
167,1431.0994168276316,-0.15538712963461876,0.0,1181.666666666667,16.7016701670167
168,1431.0994168276316,-0.15538712963461876,0.0,1181.666666666667,16.8016801680168
169,1431.0994168276316,-0.15538712963461876,0.0,1181.666666666667,16.901690169016902
170,1431.0994168276316,-0.15538712963461876,0.0,1181.666666666667,17.001700170017
171,1431.0994168276316,-0.15538712963461876,0.0,1181.666666666667,17.1017101710171
172,1431.0994168276316,-0.15538712963461876,0.0,1181.666666666667,17.2017201720172
173,1431.0994168276316,-0.15538712963461876,0.0,1181.666666666667,17.3017301730173
174,1431.0994168276316,-0.15538712963461876,0.0,1181.666666666667,17.4017401740174
175,1431.0994168276316,-0.15538712963461876,0.0,1181.666666666667,17.501750175017502
176,1431.0994168276316,-0.15538712963461876,0.0,1181.666666666667,17.6017601760176
177,1431.0994168276316,-0.15538712963461876,0.0,1181.666666666667,17.7017701770177
178,1431.0994168276316,-0.15538712963461876,0.0,1181.666666666667,17.8017801780178
179,1431.0994168276316,-0.15538712963461876,0.0,1181.666666666667,17.9017901790179
180,1431.0994168276316,-0.15538712963461876,0.0,1181.666666666667,18.001800180018
181,1431.0994168276316,-0.15538712963461876,0.0,1181.666666666667,18.101810181018102
182,1431.0994168276316,-0.15538712963461876,0.0,1181.666666666667,18.2018201820182
183,1431.0994168276316,-0.15538712963461876,0.0,1181.666666666667,18.3018301830183
184,1431.0994168276316,-0.15538712963461876,0.0,1181.666666666667,18.4018401840184
185,1431.0994168276316,-0.15538712963461876,0.0,1181.666666666667,18.5018501850185
186,1431.0994168276316,-0.15538712963461876,0.0,1181.666666666667,18.6018601860186
187,1431.0994168276316,-0.15538712963461876,0.0,1181.666666666667,18.701870187018702
188,1431.0994168276316,-0.15538712963461876,0.0,1181.666666666667,18.8018801880188
189,1431.0994168276316,-0.15538712963461876,0.0,1181.666666666667,18.9018901890189
190,1431.0994168276316,-0.15538712963461876,0.0,1181.666666666667,19.001900190019
191,1431.0994168276316,-0.15538712963461876,0.0,1181.666666666667,19.1019101910191
192,1431.0994168276316,-0.15538712963461876,0.0,1181.666666666667,19.2019201920192
193,1431.0994168276316,-0.15538712963461876,0.0,1181.666666666667,19.301930193019302
194,1431.0994168276316,-0.15538712963461876,0.0,1181.666666666667,19.4019401940194
195,1431.0994168276316,-0.15538712963461876,0.0,1181.666666666667,19.5019501950195
196,1431.0994168276316,-0.15538712963461876,0.0,1181.666666666667,19.6019601960196
197,1431.0994168276316,-0.15538712963461876,0.0,1181.666666666667,19.7019701970197
198,1431.0994168276316,-0.15538712963461876,0.0,1181.666666666667,19.801980198019802
199,1431.0994168276316,-0.15538712963461876,0.0,1181.666666666667,19.901990199019902
200,1431.0994168276316,-0.15538712963461876,0.0,1181.666666666667,20.00200020002
201,1431.0994168276316,-0.15538712963461876,0.0,1181.666666666667,20.1020102010201
202,1431.0994168276316,-0.15538712963461876,0.0,1181.666666666667,20.2020202020202
203,1431.0994168276316,-0.15538712963461876,0.0,1181.666666666667,20.3020302030203
204,1431.0994168276316,-0.15538712963461876,0.0,1181.666666666667,20.402040204020402
205,1431.0994168276316,-0.15538712963461876,0.0,1181.666666666667,20.502050205020502
206,1431.0994168276316,-0.15538712963461876,0.0,1181.666666666667,20.6020602060206
207,1431.0994168276316,-0.15538712963461876,0.0,1181.666666666667,20.7020702070207
208,1431.0994168276316,-0.15538712963461876,0.0,1181.666666666667,20.8020802080208
209,1431.0994168276316,-0.15538712963461876,0.0,1181.666666666667,20.9020902090209
210,1431.0994168276316,-0.15538712963461876,0.0,1181.666666666667,21.002100210021002
211,1431.0994168276316,-0.15538712963461876,0.0,1181.666666666667,21.102110211021103
212,1431.0994168276316,-0.15538712963461876,0.0,1181.666666666667,21.2021202120212
213,1431.0994168276316,-0.15538712963461876,0.0,1181.666666666667,21.3021302130213
214,1431.0994168276316,-0.15538712963461876,0.0,1181.666666666667,21.4021402140214
215,1431.0994168276316,-0.15538712963461876,0.0,1181.666666666667,21.5021502150215
216,1431.0994168276316,-0.15538712963461876,0.0,1181.666666666667,21.602160216021602
217,1431.0994168276316,-0.15538712963461876,0.0,1181.666666666667,21.702170217021703
218,1431.0994168276316,-0.15538712963461876,0.0,1181.666666666667,21.8021802180218
219,1431.0994168276316,-0.15538712963461876,0.0,1181.666666666667,21.9021902190219
220,1431.0994168276316,-0.15538712963461876,0.0,1181.666666666667,22.002200220022
221,1431.0994168276316,-0.15538712963461876,0.0,1181.666666666667,22.1022102210221
222,1431.0994168276316,-0.15538712963461876,0.0,1181.666666666667,22.202220222022202
223,1431.0994168276316,-0.15538712963461876,0.0,1181.666666666667,22.302230223022303
224,1431.0994168276316,-0.15538712963461876,0.0,1181.666666666667,22.4022402240224
225,1431.0994168276316,-0.15538712963461876,0.0,1181.666666666667,22.5022502250225
226,1431.0994168276316,-0.15538712963461876,0.0,1181.666666666667,22.6022602260226
227,1431.0994168276316,-0.15538712963461876,0.0,1181.666666666667,22.7022702270227
228,1431.0994168276316,-0.15538712963461876,0.0,1181.666666666667,22.802280228022802
229,1431.0994168276316,-0.15538712963461876,0.0,1181.666666666667,22.902290229022903
230,1431.0994168276316,-0.15538712963461876,0.0,1181.666666666667,23.002300230023
231,1431.0994168276316,-0.15538712963461876,0.0,1181.666666666667,23.1023102310231
232,1431.0994168276316,-0.15538712963461876,0.0,1181.666666666667,23.2023202320232
233,1431.0994168276316,-0.15538712963461876,0.0,1181.666666666667,23.3023302330233
234,1431.0994168276316,-0.15538712963461876,0.0,1181.666666666667,23.402340234023402
235,1431.0994168276316,-0.15538712963461876,0.0,1181.666666666667,23.502350235023503
236,1431.0994168276316,-0.15538712963461876,0.0,1181.666666666667,23.6023602360236
237,1431.0994168276316,-0.15538712963461876,0.0,1181.666666666667,23.7023702370237
238,1431.0994168276316,-0.15538712963461876,0.0,1181.666666666667,23.8023802380238
