,distance,altitude,velocity,mass,time
0,0.0,0.0,0.0,1534.0,0.0
1,4.234026585914255,1.2970229387283325,88.77635431707289,1534.0,0.1000100010001
2,17.05391055529801,5.1004032753407955,178.90876010724523,1490.857142857143,0.2000200020002
3,38.68837366228664,11.115967717021704,270.4305117179142,1490.857142857143,0.3000300030003
4,69.30308461096503,19.251210544258356,363.3511563540575,1447.7142857142858,0.4000400040004
5,109.05579595244663,29.450991705060005,457.7003943997739,1447.7142857142858,0.5000500050005
6,158.10240184219285,41.679908130317926,553.5128229224574,1404.5714285714287,0.6000600060006
7,216.59927897835541,55.91507376730442,650.8244761080462,1404.5714285714287,0.7000700070007
8,284.7042801792847,72.14229868724942,749.6693942032123,1361.4285714285716,0.8000800080008
9,362.576941070099,90.3537528514862,850.076106989479,1361.4285714285716,0.9000900090009001
10,450.37838872386345,110.54642840847373,952.0688139664624,1318.2857142857144,1.000100010001
11,548.2708897960654,132.72101647406816,1055.6620894799216,1318.2857142857144,1.1001100110011
12,656.4178498783838,156.88119080662727,1160.8952383467415,1275.1428571428573,1.2001200120012
13,774.994560231054,183.03546307235956,1267.9794451482544,1275.1428571428573,1.3001300130013
14,904.1894861707133,211.19701118767262,1376.9278499213426,1232.0000000000002,1.4001400140014
15,1044.1901405743683,241.38022136688232,1487.7699178689684,1232.0000000000002,1.5001500150015001
16,1195.188942646102,273.60174003243446,1600.5663376673106,1188.8571428571431,1.6001600160016
17,1357.384503306026,307.88054613769054,1715.3872417584646,1188.8571428571431,1.7001700170017
18,1530.9823210252537,344.237926825881,1832.3062546596852,1145.714285714286,1.8001800180018002
19,1716.1950060008635,382.6973795071244,1951.3978588477125,1145.714285714286,1.9001900190019
20,1913.2425812269619,423.2845519669354,2072.742602681685,1102.571428571429,2.000200020002
21,2122.3530645780984,466.0272577665746,2196.4248162798617,1102.571428571429,2.1002100210021
22,2343.7629612600736,510.9554853364825,2322.5354796032834,1059.4285714285718,2.2002200220022
23,2577.7177454539165,558.1014154180884,2451.1684035478743,1059.4285714285718,2.3002300230023
24,2824.472471258478,607.499472592026,2582.4270628275813,1016.2857142857147,2.4002400240024
25,3084.2926653918794,659.1864396929741,2716.4221739998093,1016.2857142857147,2.5002500250025
26,3357.4546515568964,713.2014635168016,2853.261995864285,973.1428571428576,2.6002600260026
27,3644.2455041834846,769.5859927982092,2993.06307322134,973.1428571428576,2.7002700270027002
28,3944.9645365126426,828.3840238749981,3135.956944446774,930.0000000000005,2.8002800280028
29,4259.924405825921,889.6422711573541,3282.084722684724,930.0000000000005,2.9002900290029
30,4589.452107625645,953.4103169254959,3431.5980634736543,886.8571428571433,3.0003000300030003
31,4933.89007051918,1019.7407817319036,3584.6602587953926,886.8571428571433,3.1003100310031
32,5293.597365299757,1088.6895175613463,3741.4474778027966,843.7142857142862,3.2003200320032
33,5668.951043882196,1160.315826073289,3902.1501783887593,843.7142857142862,3.3003300330033003
34,6060.347626346473,1234.6827049925923,4066.9747185470733,800.5714285714291,3.4003400340034
35,6468.204757462552,1311.8571261428297,4207.42133021016,800.5714285714291,3.5003500350035
36,6881.5975122685295,1389.7660171687603,4206.507382394125,793.380952380953,3.6003600360036003
37,7294.95596290097,1467.3555140532553,4205.596584193204,793.380952380953,3.7003700370037
38,7708.239642377595,1544.618068214506,4203.864068976906,217.0,3.8003800380038
39,8121.408238917905,1621.546198554337,4202.137164956054,217.0,3.9003900390039004
40,8534.462074133016,1698.140044938773,4200.415852571097,217.0,4.000400040004
41,8947.401467682832,1774.3997464366257,4198.700112378464,217.0,4.1004100410041
42,9360.226737286714,1850.325441326946,4196.989925049636,217.0,4.2004200420042
43,9772.938198734095,1925.917267113924,4195.285271370246,217.0,4.3004300430043
44,10185.536165895,2001.1753605157137,4193.586132239164,217.0,4.4004400440044
45,10598.0209507305,2076.0998574756086,4191.892488667602,217.0,4.5004500450045
46,11010.392863303068,2150.690893173218,4190.204321778227,217.0,4.6004600460046
47,11422.652211786866,2224.9486020430923,4188.521612804271,217.0,4.7004700470047
48,11834.799302477972,2298.873117752373,4186.844343088661,217.0,4.8004800480048
49,12246.834439804512,2372.4645732082427,4185.17249408314,217.0,4.9004900490049
50,12658.757926336708,2445.723100602627,4183.506047347407,217.0,5.000500050005
51,13070.570062796874,2518.648831371218,4181.844984548258,217.0,5.1005100510051005
52,13482.271148069329,2591.2418962158263,4180.189287458736,217.0,5.2005200520052
53,13893.86147921022,2663.5024251267314,4178.538937957283,217.0,5.3005300530053
54,14305.341351457291,2735.4305473566055,4176.893918026907,217.0,5.4005400540054005
55,14716.711058239576,2807.026391465217,4175.254209754343,217.0,5.5005500550055
56,15127.97089118701,2878.2900852784514,4173.619795329229,217.0,5.6005600560056
57,15539.12114013997,2949.2217559292912,4171.99065704329,217.0,5.7005700570057005
58,15950.162093158751,3019.8215298615396,4170.366777289517,217.0,5.8005800580058
59,16361.094036532973,3090.0895328074694,4168.748138561365,217.0,5.9005900590059
60,16771.91725479091,3160.0258898176253,4167.134723451947,217.0,6.0006000600060005
61,17182.632030708734,3229.6307252682745,4165.526514653242,217.0,6.1006100610061
62,17593.238645319736,3298.9041628427804,4163.923494955302,217.0,6.2006200620062
63,18003.73737792343,3367.846325568855,4162.325647245466,217.0,6.300630063006301
64,18414.1285060946,3436.4573357887566,4160.732954507585,217.0,6.4006400640064
65,18824.412305692316,3504.737315196544,4159.145399821252,217.0,6.5006500650065
66,19234.58905086881,3572.6863848268986,4157.562966361024,217.0,6.600660066006601
67,19644.659014078377,3640.304665055126,4155.985637395674,217.0,6.7006700670067
68,20054.622466086126,3707.5922756120563,4154.413396287421,217.0,6.8006800680068
69,20464.4796759767,3774.549335591495,4152.846226491193,217.0,6.900690069006901
70,20874.230911162955,3841.175963446498,4151.284111553874,217.0,7.000700070007
71,21283.877377383134,3907.472276993096,4149.727035113565,217.0,7.1007100710071
72,21693.417516640766,3973.4383934289217,4148.174980898853,217.0,7.200720072007201
73,22102.85247370008,4039.0744293257594,4146.627932728078,217.0,7.3007300730073
74,22512.18250736491,4104.380500629544,4145.085874508614,217.0,7.4007400740074
75,22921.407879784678,4169.3567226827145,4143.5487902361465,217.0,7.500750075007501
76,23330.528852015395,4234.003210216761,4142.016663993962,217.0,7.6007600760076
77,23739.54567799694,4298.320077359676,4140.489479952236,217.0,7.7007700770077
78,24148.458611191494,4362.307437643409,4138.967222367339,217.0,7.800780078007801
79,24557.26790660889,4425.965403996408,4137.449875581126,217.0,7.9007900790079
80,24965.973810978056,4489.294088765979,4135.937424020252,217.0,8.000800080008
81,25374.576576802534,4552.29360371083,4134.429852195484,217.0,8.1008100810081
82,25783.076456270122,4614.964060012251,4132.927144701013,217.0,8.2008200820082
83,26191.473686474805,4677.305568262935,4131.42928621378,217.0,8.3008300830083
84,26599.76851793228,4739.318238511682,4129.936261492799,217.0,8.4008400840084
85,27007.961195618664,4801.002180211246,4128.448055378493,217.0,8.5008500850085
86,27416.051959392094,4862.357502263039,4126.964652792026,217.0,8.6008600860086
87,27824.0410461199,4923.38431301713,4125.486038734644,217.0,8.7008700870087
88,28231.928701927576,4984.082720257342,4124.012198287024,217.0,8.8008800880088
89,28639.7151544553,5044.452831227332,4122.543116608619,217.0,8.9008900890089
90,29047.400649223942,5104.494752626866,4121.078778937017,217.0,9.000900090009
91,29454.985418769964,5164.208590596914,4119.619170587295,217.0,9.1009100910091
92,29862.46969003545,5223.594450768083,4118.16427695139,217.0,9.2009200920092
93,30269.853694364963,5282.652438219637,4116.714083497459,217.0,9.3009300930093
94,30677.137667220723,5341.382657513022,4115.268575769254,217.0,9.4009400940094
95,31084.32183543929,5399.785212676972,4113.827739385506,217.0,9.5009500950095
96,31491.406425496378,5457.860207229853,4112.391560039292,217.0,9.6009600960096
97,31898.391660496327,5515.607744164765,4110.960023497435,217.0,9.7009700970097
98,32305.27776339371,5573.027925975621,4109.53311559988,217.0,9.8009800980098
99,32712.06496293944,5630.120854634792,4108.110822259101,217.0,9.900990099009901
100,33118.753472831355,5686.88663161546,4106.693129459489,217.0,10.00100010001
101,33525.34351722495,5743.325357902795,4105.280023256756,217.0,10.1010101010101
102,33931.83531439185,5799.437133971602,4103.871489777349,217.0,10.201020102010201
103,34338.22907848673,5855.222059816122,4102.467515217849,217.0,10.3010301030103
104,34744.525025377276,5910.680234935135,4101.068085844392,217.0,10.4010401040104
105,35150.7233697919,5965.81175834313,4099.673187992085,217.0,10.501050105010501
106,35556.824326754606,6020.616728588939,4098.282808064433,217.0,10.6010601060106
107,35962.82810213467,6075.095243725926,4096.896932532757,217.0,10.7010701070107
108,36368.734909164574,6129.247401352972,4095.51554793563,217.0,10.801080108010801
109,36774.54495617063,6183.07329858467,4094.1386408783083,217.0,10.9010901090109
110,37180.25844815052,6236.573032088578,4092.766198032172,217.0,11.001100110011
111,37585.875592119344,6289.746698062867,4091.3982061341635,217.0,11.101110111011101
112,37991.39659190119,6342.594392243773,4090.0346519862346,217.0,11.2011201120112
113,38396.82165082875,6395.116209924221,4088.6755224547946,217.0,11.3011301130113
114,38802.150970524315,6447.312245938927,4087.3208044701637,217.0,11.401140114011401
115,39207.384750993035,6499.182594686747,4085.9704850260287,217.0,11.5011501150115
116,39612.52319071052,6550.727350119501,4084.624551178903,217.0,11.6011601160116
117,40017.56648791688,6601.946605749428,4083.28299004759,217.0,11.701170117011701
118,40422.51483583432,6652.8404546529055,4081.9457888126512,217.0,11.8011801180118
119,40827.36843598658,6703.408989485353,4080.6129347158767,217.0,11.9011901190119
120,41232.127471920336,6753.652302458882,4079.284415059756,217.0,12.001200120012001
121,41636.79214735479,6803.570485375822,4077.960217206962,217.0,12.1012101210121
122,42041.362643688335,6853.163629610091,4076.640328579826,217.0,12.2012201220122
123,42445.83915534252,6902.43182612583,4075.324736659824,217.0,12.301230123012301
124,42850.22187443876,6951.375165462494,4074.0134289870657,217.0,12.4012401240124
125,43254.510978577186,6999.993737760931,4072.7063931597863,217.0,12.5012501250125
126,43658.70666039355,7048.287632744759,4071.4036168338353,217.0,12.601260126012601
127,44062.80909935839,7096.256939750165,4070.1050877221824,217.0,12.7012701270127
128,44466.81848637246,7143.901747696102,4068.8107935944126,217.0,12.8012801280128
129,44870.73499623633,7191.222145117819,4067.5207222762324,217.0,12.901290129012901
130,45274.55881515095,7238.218220151961,4066.2348616489767,217.0,13.001300130013
131,45678.290117922195,7284.890060547739,4064.9531996491196,217.0,13.1013101310131
132,46081.92908424926,7331.237753670663,4063.675724267789,217.0,13.201320132013201
133,46485.47589434286,7377.261386495084,4062.4024235502816,217.0,13.3013301330133
134,46888.93071959826,7422.9610456191,4061.1332855955834,217.0,13.4013401340134
135,47292.29373630562,7468.336817275733,4059.8682985558953,217.0,13.501350135013501
136,47695.56511934558,7513.388787314296,4058.6074506361538,217.0,13.6013601360136
137,48098.745038218796,7558.117041204125,4057.350730093565,217.0,13.7013701370137
138,48501.833665271726,7602.521664075553,4056.0981252371334,217.0,13.801380138013801
139,48904.83116864115,7646.60274066776,4054.849624427199,217.0,13.9013901390139
140,49307.737718330434,7690.360355380923,4053.605216074974,217.0,14.001400140014
141,49710.55348223488,7733.794592238963,4052.3648886420833,217.0,14.101410141014101
142,50113.278626229396,7776.905534930527,4051.1286306401084,217.0,14.2014201420142
143,50515.91331137205,7819.693266779184,4049.8964306301345,217.0,14.3014301430143
144,50918.457707431284,7862.157870769501,4048.6682772223003,217.0,14.401440144014401
145,51320.91197270323,7904.299429543316,4047.444159075347,217.0,14.5014501450145
146,51723.27627040013,7946.118025384843,4046.2240648961774,217.0,14.6014601460146
147,52125.55075822934,7987.613740261644,4045.0079834394105,217.0,14.701470147014701
148,52527.735599685766,8028.786655794829,4043.795903506943,217.0,14.8014801480148
149,52929.830950091295,8069.636853270233,4042.5878139475135,217.0,14.9014901490149
150,53331.836963270776,8110.1644136458635,4041.3837036562645,217.0,15.001500150015001
151,53733.75379883083,8150.369417566806,4040.183561574316,217.0,15.1015101510151
152,54135.58161030208,8190.251945335418,4038.9873766883334,217.0,15.2015201520152
153,54537.320552479294,8229.812076937407,4037.7951380300997,217.0,15.301530153015301
154,54938.970774315996,8269.049892056733,4036.6068346760953,217.0,15.4015401540154
155,55340.532425272955,8307.965470045805,4035.422455747076,217.0,15.5015501550155
156,55742.00566139241,8346.558889955282,4034.2419904076523,217.0,15.601560156015601
157,56143.39062778943,8384.830230519176,4033.0654278658744,217.0,15.7015701570157
158,56544.687471906924,8422.779570169747,4031.8927573728197,217.0,15.8015801580158
159,56945.89634002942,8460.40698703751,4030.72396822218,217.0,15.901590159015901
160,57347.01737901721,8497.712558954954,4029.5590497498524,217.0,16.001600160016
161,57748.05073041,8534.696363449097,4028.3979913335365,217.0,16.1016101610161
162,58148.99654145455,8571.358477760106,4027.240782392327,217.0,16.2016201620162
163,58549.85495000231,8607.69897883758,4026.0874123863123,217.0,16.301630163016302
164,58950.62610128396,8643.71794333309,4024.9378708161776,217.0,16.4016401640164
165,59351.310132137565,8679.415447618812,4023.7921472228063,217.0,16.5016501650165
166,59751.90718265465,8714.791567787528,4022.6502311868867,217.0,16.6016601660166
167,60152.417388817936,8749.846379645169,4021.51211232852,217.0,16.7016701670167
168,60552.840889046274,8784.579958714545,4020.3777803068283,217.0,16.8016801680168
169,60953.17781854724,8818.99238025397,4019.2472248195695,217.0,16.901690169016902
170,61353.42831179508,8853.083719249815,4018.1204356027506,217.0,17.001700170017
171,61753.59250177111,8886.8540504165,4016.997402430246,217.0,17.1017101710171
172,62153.67052079386,8920.30344818905,4015.878115113415,217.0,17.2017201720172
173,62553.66250209259,8953.431986752898,4014.7625635007234,217.0,17.3017301730173
174,62953.568573617544,8986.239740040153,4013.650737477368,217.0,17.4017401740174
175,63353.38886509753,9018.726781692356,4012.5426269649,217.0,17.501750175017502
176,63753.12350646462,9050.893185127527,4011.438221920857,217.0,17.6017601760176
177,64152.77262180195,9082.73902349174,4010.3375123383876,217.0,17.7017701770177
178,64552.336337039145,9114.264369681478,4009.2404882458864,217.0,17.8017801780178
179,64951.81478139041,9145.4692963548,4008.1471397066275,217.0,17.9017901790179
180,65351.20807538251,9176.353875909,4007.0574568184006,217.0,18.001800180018
181,65750.51634218394,9206.918180514127,4005.9714297131486,217.0,18.101810181018102
182,66149.73970606037,9237.162282083184,4004.8890485566094,217.0,18.2018201820182
183,66548.87828432748,9267.086252305657,4003.8103035479535,217.0,18.3018301830183
184,66947.93219987403,9296.690162625164,4002.735184919435,217.0,18.4018401840184
185,67346.90157091709,9325.974084254354,4001.663682936032,217.0,18.5018501850185
186,67745.78651472028,9354.93808817491,4000.595787895096,217.0,18.6018601860186
187,68144.5871476232,9383.582245148718,3999.531490126002,217.0,18.701870187018702
188,68543.30358648475,9411.906625695527,3998.4707799898038,217.0,18.8018801880188
189,68941.93594655924,9439.911300130188,3997.4136478788814,217.0,18.9018901890189
190,69340.48433944581,9467.596338532865,3996.3600842166,217.0,19.001900190019
191,69738.94888153888,9494.961810771376,3995.3100794569705,217.0,19.1019101910191
192,70137.32968075591,9522.007786497474,3994.2636240843017,217.0,19.2019201920192
193,70535.62685121644,9548.734335146844,3993.2207086128674,217.0,19.301930193019302
194,70933.84050213042,9575.141525946558,3992.181323586567,217.0,19.4019401940194
195,71331.9707399761,9601.229427915066,3991.1454595785913,217.0,19.5019501950195
196,71730.01767466195,9626.998109865934,3990.1131071910863,217.0,19.6019601960196
197,72127.98141338203,9652.447640404105,3989.0842570548257,217.0,19.7019701970197
198,72525.8620613603,9677.578087933362,3988.058899828878,217.0,19.801980198019802
199,72923.6597232357,9702.389520671219,3987.03702620028,217.0,19.901990199019902
200,73321.37450440205,9726.882006619126,3998.7074439225003,216.31341719077568,20.00200020002
201,73724.08762510908,9751.365596070886,4074.2902759819763,216.31341719077568,20.1020102010201
202,74134.39549745011,9775.994511008263,4150.583997708616,212.19392033542977,20.2020202020202
203,74552.36978970641,9800.767527598888,4227.602107456647,212.19392033542977,20.3020302030203
204,74978.08354138097,9825.683515585959,4305.358513022805,208.07442348008385,20.402040204020402
205,75411.61119720915,9850.741438094527,4383.867548404659,208.07442348008385,20.502050205020502
206,75853.02865378933,9875.94035154581,4463.143991440464,203.95492662473794,20.6020602060206
207,76302.41330802272,9901.2794056423,4543.202900211647,203.95492662473794,20.7020702070207
208,76759.84400225915,9926.757838394493,4624.058468628869,199.83542976939202,20.8020802080208
209,77225.40107758247,9952.374976180494,4705.726597970292,199.83542976939202,20.9020902090209
210,77699.16649948058,9978.130238693208,4788.22383677952,195.7159329140461,21.002100210021002
211,78181.22391365851,10004.023139446974,4871.567266491834,195.7159329140461,21.102110211021103
212,78671.65869573408,10030.05328629911,4955.774524686996,191.5964360587002,21.2021202120212
213,79170.55801205196,10056.220382168889,5040.8638296389745,191.5964360587002,21.3021302130213
214,79678.01087207743,10082.524225521833,5126.853768158665,187.47693920335428,21.4021402140214
215,80194.10814109982,10108.96470894292,5213.76316551798,187.47693920335428,21.5021502150215
216,80718.94262721308,10135.541821051389,5301.612015388245,183.35744234800836,21.602160216021602
217,81252.60916922589,10162.255649145693,5390.421036006558,183.35744234800836,21.702170217021703
218,81795.20471391993,10189.106380462646,5480.2116645969445,179.23794549266245,21.8021802180218
219,82346.82838228649,10216.094303626567,5571.006091276776,179.23794549266245,21.9021902190219
220,82907.5815536634,10243.219810210168,5662.827295001769,175.11844863731653,22.002200220022
221,83477.56793820906,10270.483396433294,5755.699081698388,175.11844863731653,22.1022102210221
222,84056.89367202773,10297.885665014386,5849.646124745361,170.99895178197062,22.202220222022202
223,84645.6673963364,10325.427327204496,5944.694007980128,170.99895178197062,22.302230223022303
224,85244.00035583488,10353.109204918146,6040.869271421654,166.8794549266247,22.4022402240224
225,85852.00649526205,10380.932233113796,6138.199459918216,166.8794549266247,22.5022502250225
226,86469.80256509897,10408.897462271154,6236.712971276828,162.7599580712788,22.6022602260226
227,87097.50809807851,10437.006055481732,6336.4373568219125,162.7599580712788,22.7022702270227
228,87735.24550867008,10465.259290546179,6437.402991381938,158.64046121593287,22.802280228022802
229,88383.14032616267,10493.658568467945,6539.641706141997,158.64046121593287,22.902290229022903
230,89041.32132421888,10522.205416753888,6643.1866099559875,154.52096436058696,23.002300230023
231,89709.92064781563,10550.901492923498,6748.0721592316595,154.52096436058696,23.1023102310231
232,90389.07381222663,10579.74858213216,6854.32985005385,150.40146750524104,23.2023202320232
233,91078.91935672032,10608.74858045578,6961.991539158239,150.40146750524104,23.3023302330233
234,91779.59936436769,10637.903515294194,7071.095119587921,146.28197064989513,23.402340234023402
