,distance,altitude,velocity,mass,time
0,0.0,0.0,0.0,1534.0,0.0
1,4.453463339187959,0.30720848590135574,89.49260877279491,1534.0,0.1000100010001
2,17.89869708068898,1.23775914311409,180.27295287189423,1490.857142857143,0.2000200020002
3,40.47037229976828,2.7511077746748924,272.4110351915991,1490.857142857143,0.3000300030003
4,72.32545324608138,4.576082076877356,365.97377068496,1447.7142857142858,0.4000400040004
5,113.6117939810747,6.577991470694542,460.96655431383635,1447.7142857142858,0.5000500050005
6,164.47505383395873,8.689020536839962,557.4235184843715,1404.5714285714287,0.6000600060006
7,225.06383593329915,10.853888787329197,655.380230464985,1404.5714285714287,0.7000700070007
8,295.5298863999405,13.025775734335184,754.8700354756303,1361.4285714285716,0.8000800080008
9,376.0278087410549,15.163916103541851,855.9208573722761,1361.4285714285716,0.9000900090009001
10,466.71467875753956,17.232067074626684,958.555807547776,1318.2857142857144,1.000100010001
11,567.7492810773945,19.197467617690563,1062.7880268197173,1318.2857142857144,1.1001100110011
12,679.2922324684796,21.030121993273497,1168.663844231422,1275.1428571428573,1.2001200120012
13,801.5178769136966,22.70244523137808,1276.3972425920078,1275.1428571428573,1.3001300130013
14,934.6131734369458,24.188785914331675,1385.9889891444682,1232.0000000000002,1.4001400140014
15,1078.7644191437712,25.464904744178057,1497.47320484962,1232.0000000000002,1.5001500150015001
16,1234.1633267993027,26.507816452533007,1610.910608286027,1188.8571428571431,1.6001600160016
17,1401.0081626482938,27.295593541115522,1726.3713241490493,1188.8571428571431,1.7001700170017
18,1579.5043894926519,27.807197351008654,1843.9286074918994,1145.714285714286,1.8001800180018002
19,1769.8648191698467,28.02233323454857,1963.6561891063766,1145.714285714286,1.9001900190019
20,1972.3099448856763,27.921328391879797,2085.6346736899054,1102.571428571429,2.000200020002
21,2187.068487775664,27.485026955604553,2209.9476821431954,1102.571428571429,2.1002100210021
22,2414.377878922081,26.694697245955467,2336.6856361666064,1059.4285714285718,2.2002200220022
23,2654.484726273314,25.53194985166192,2465.9421167249893,1059.4285714285718,2.3002300230023
24,2907.645462148858,23.978662870824337,2597.8201839284243,1016.2857142857147,2.4002400240024
25,3174.127208433943,22.016912166029215,2732.4296627342337,1016.2857142857147,2.5002500250025
26,3454.20793390829,19.628911528736353,2869.8763374595014,973.1428571428576,2.6002600260026
27,3748.176550852699,16.796959318220615,3010.277253574378,973.1428571428576,2.7002700270027002
28,4056.334446386796,13.503376822918653,3153.7629640072273,930.0000000000005,2.8002800280028
29,4378.996531449759,9.730451412498951,3300.473483124452,930.0000000000005,2.9002900290029
30,4716.492233520183,5.460381407290697,3450.5592439953994,894.0476190476195,3.0003000300030003
31,5069.166591145949,0.6752209700644016,3603.997362474058,894.0476190476195,3.1003100310031
32,5129.228027434332,-0.11400900781154633,3629.722468160398,894.0476190476195,3.2003200320032
33,5129.228027434332,-0.11400900781154633,0.0,894.0476190476195,3.3003300330033003
34,5129.228027434332,-0.11400900781154633,0.0,894.0476190476195,3.4003400340034
35,5129.228027434332,-0.11400900781154633,0.0,894.0476190476195,3.5003500350035
36,5129.228027434332,-0.11400900781154633,0.0,894.0476190476195,3.6003600360036003
37,5129.228027434332,-0.11400900781154633,0.0,894.0476190476195,3.7003700370037
38,5129.228027434332,-0.11400900781154633,0.0,894.0476190476195,3.8003800380038
39,5129.228027434332,-0.11400900781154633,0.0,894.0476190476195,3.9003900390039004
40,5129.228027434332,-0.11400900781154633,0.0,894.0476190476195,4.000400040004
41,5129.228027434332,-0.11400900781154633,0.0,894.0476190476195,4.1004100410041
42,5129.228027434332,-0.11400900781154633,0.0,894.0476190476195,4.2004200420042
43,5129.228027434332,-0.11400900781154633,0.0,894.0476190476195,4.3004300430043
44,5129.228027434332,-0.11400900781154633,0.0,894.0476190476195,4.4004400440044
45,5129.228027434332,-0.11400900781154633,0.0,894.0476190476195,4.5004500450045
46,5129.228027434332,-0.11400900781154633,0.0,894.0476190476195,4.6004600460046
47,5129.228027434332,-0.11400900781154633,0.0,894.0476190476195,4.7004700470047
48,5129.228027434332,-0.11400900781154633,0.0,894.0476190476195,4.8004800480048
49,5129.228027434332,-0.11400900781154633,0.0,894.0476190476195,4.9004900490049
50,5129.228027434332,-0.11400900781154633,0.0,894.0476190476195,5.000500050005
51,5129.228027434332,-0.11400900781154633,0.0,894.0476190476195,5.1005100510051005
52,5129.228027434332,-0.11400900781154633,0.0,894.0476190476195,5.2005200520052
53,5129.228027434332,-0.11400900781154633,0.0,894.0476190476195,5.3005300530053
54,5129.228027434332,-0.11400900781154633,0.0,894.0476190476195,5.4005400540054005
55,5129.228027434332,-0.11400900781154633,0.0,894.0476190476195,5.5005500550055
56,5129.228027434332,-0.11400900781154633,0.0,894.0476190476195,5.6005600560056
57,5129.228027434332,-0.11400900781154633,0.0,894.0476190476195,5.7005700570057005
58,5129.228027434332,-0.11400900781154633,0.0,894.0476190476195,5.8005800580058
59,5129.228027434332,-0.11400900781154633,0.0,894.0476190476195,5.9005900590059
60,5129.228027434332,-0.11400900781154633,0.0,894.0476190476195,6.0006000600060005
61,5129.228027434332,-0.11400900781154633,0.0,894.0476190476195,6.1006100610061
62,5129.228027434332,-0.11400900781154633,0.0,894.0476190476195,6.2006200620062
63,5129.228027434332,-0.11400900781154633,0.0,894.0476190476195,6.300630063006301
64,5129.228027434332,-0.11400900781154633,0.0,894.0476190476195,6.4006400640064
65,5129.228027434332,-0.11400900781154633,0.0,894.0476190476195,6.5006500650065
66,5129.228027434332,-0.11400900781154633,0.0,894.0476190476195,6.600660066006601
67,5129.228027434332,-0.11400900781154633,0.0,894.0476190476195,6.7006700670067
68,5129.228027434332,-0.11400900781154633,0.0,894.0476190476195,6.8006800680068
69,5129.228027434332,-0.11400900781154633,0.0,894.0476190476195,6.900690069006901
70,5129.228027434332,-0.11400900781154633,0.0,894.0476190476195,7.000700070007
71,5129.228027434332,-0.11400900781154633,0.0,894.0476190476195,7.1007100710071
72,5129.228027434332,-0.11400900781154633,0.0,894.0476190476195,7.200720072007201
73,5129.228027434332,-0.11400900781154633,0.0,894.0476190476195,7.3007300730073
74,5129.228027434332,-0.11400900781154633,0.0,894.0476190476195,7.4007400740074
75,5129.228027434332,-0.11400900781154633,0.0,894.0476190476195,7.500750075007501
76,5129.228027434332,-0.11400900781154633,0.0,894.0476190476195,7.6007600760076
77,5129.228027434332,-0.11400900781154633,0.0,894.0476190476195,7.7007700770077
78,5129.228027434332,-0.11400900781154633,0.0,894.0476190476195,7.800780078007801
79,5129.228027434332,-0.11400900781154633,0.0,894.0476190476195,7.9007900790079
80,5129.228027434332,-0.11400900781154633,0.0,894.0476190476195,8.000800080008
81,5129.228027434332,-0.11400900781154633,0.0,894.0476190476195,8.1008100810081
82,5129.228027434332,-0.11400900781154633,0.0,894.0476190476195,8.2008200820082
83,5129.228027434332,-0.11400900781154633,0.0,894.0476190476195,8.3008300830083
84,5129.228027434332,-0.11400900781154633,0.0,894.0476190476195,8.4008400840084
85,5129.228027434332,-0.11400900781154633,0.0,894.0476190476195,8.5008500850085
86,5129.228027434332,-0.11400900781154633,0.0,894.0476190476195,8.6008600860086
87,5129.228027434332,-0.11400900781154633,0.0,894.0476190476195,8.7008700870087
88,5129.228027434332,-0.11400900781154633,0.0,894.0476190476195,8.8008800880088
89,5129.228027434332,-0.11400900781154633,0.0,894.0476190476195,8.9008900890089
90,5129.228027434332,-0.11400900781154633,0.0,894.0476190476195,9.000900090009
91,5129.228027434332,-0.11400900781154633,0.0,894.0476190476195,9.1009100910091
92,5129.228027434332,-0.11400900781154633,0.0,894.0476190476195,9.2009200920092
93,5129.228027434332,-0.11400900781154633,0.0,894.0476190476195,9.3009300930093
94,5129.228027434332,-0.11400900781154633,0.0,894.0476190476195,9.4009400940094
95,5129.228027434332,-0.11400900781154633,0.0,894.0476190476195,9.5009500950095
96,5129.228027434332,-0.11400900781154633,0.0,894.0476190476195,9.6009600960096
97,5129.228027434332,-0.11400900781154633,0.0,894.0476190476195,9.7009700970097
98,5129.228027434332,-0.11400900781154633,0.0,894.0476190476195,9.8009800980098
99,5129.228027434332,-0.11400900781154633,0.0,894.0476190476195,9.900990099009901
100,5129.228027434332,-0.11400900781154633,0.0,894.0476190476195,10.00100010001
101,5129.228027434332,-0.11400900781154633,0.0,894.0476190476195,10.1010101010101
102,5129.228027434332,-0.11400900781154633,0.0,894.0476190476195,10.201020102010201
103,5129.228027434332,-0.11400900781154633,0.0,894.0476190476195,10.3010301030103
104,5129.228027434332,-0.11400900781154633,0.0,894.0476190476195,10.4010401040104
105,5129.228027434332,-0.11400900781154633,0.0,894.0476190476195,10.501050105010501
106,5129.228027434332,-0.11400900781154633,0.0,894.0476190476195,10.6010601060106
107,5129.228027434332,-0.11400900781154633,0.0,894.0476190476195,10.7010701070107
108,5129.228027434332,-0.11400900781154633,0.0,894.0476190476195,10.801080108010801
109,5129.228027434332,-0.11400900781154633,0.0,894.0476190476195,10.9010901090109
110,5129.228027434332,-0.11400900781154633,0.0,894.0476190476195,11.001100110011
111,5129.228027434332,-0.11400900781154633,0.0,894.0476190476195,11.101110111011101
112,5129.228027434332,-0.11400900781154633,0.0,894.0476190476195,11.2011201120112
113,5129.228027434332,-0.11400900781154633,0.0,894.0476190476195,11.3011301130113
114,5129.228027434332,-0.11400900781154633,0.0,894.0476190476195,11.401140114011401
115,5129.228027434332,-0.11400900781154633,0.0,894.0476190476195,11.5011501150115
116,5129.228027434332,-0.11400900781154633,0.0,894.0476190476195,11.6011601160116
117,5129.228027434332,-0.11400900781154633,0.0,894.0476190476195,11.701170117011701
118,5129.228027434332,-0.11400900781154633,0.0,894.0476190476195,11.8011801180118
119,5129.228027434332,-0.11400900781154633,0.0,894.0476190476195,11.9011901190119
120,5129.228027434332,-0.11400900781154633,0.0,894.0476190476195,12.001200120012001
121,5129.228027434332,-0.11400900781154633,0.0,894.0476190476195,12.1012101210121
122,5129.228027434332,-0.11400900781154633,0.0,894.0476190476195,12.2012201220122
123,5129.228027434332,-0.11400900781154633,0.0,894.0476190476195,12.301230123012301
124,5129.228027434332,-0.11400900781154633,0.0,894.0476190476195,12.4012401240124
125,5129.228027434332,-0.11400900781154633,0.0,894.0476190476195,12.5012501250125
126,5129.228027434332,-0.11400900781154633,0.0,894.0476190476195,12.601260126012601
127,5129.228027434332,-0.11400900781154633,0.0,894.0476190476195,12.7012701270127
128,5129.228027434332,-0.11400900781154633,0.0,894.0476190476195,12.8012801280128
129,5129.228027434332,-0.11400900781154633,0.0,894.0476190476195,12.901290129012901
130,5129.228027434332,-0.11400900781154633,0.0,894.0476190476195,13.001300130013
131,5129.228027434332,-0.11400900781154633,0.0,894.0476190476195,13.1013101310131
132,5129.228027434332,-0.11400900781154633,0.0,894.0476190476195,13.201320132013201
133,5129.228027434332,-0.11400900781154633,0.0,894.0476190476195,13.3013301330133
134,5129.228027434332,-0.11400900781154633,0.0,894.0476190476195,13.4013401340134
135,5129.228027434332,-0.11400900781154633,0.0,894.0476190476195,13.501350135013501
136,5129.228027434332,-0.11400900781154633,0.0,894.0476190476195,13.6013601360136
137,5129.228027434332,-0.11400900781154633,0.0,894.0476190476195,13.7013701370137
138,5129.228027434332,-0.11400900781154633,0.0,894.0476190476195,13.801380138013801
139,5129.228027434332,-0.11400900781154633,0.0,894.0476190476195,13.9013901390139
140,5129.228027434332,-0.11400900781154633,0.0,894.0476190476195,14.001400140014
141,5129.228027434332,-0.11400900781154633,0.0,894.0476190476195,14.101410141014101
142,5129.228027434332,-0.11400900781154633,0.0,894.0476190476195,14.2014201420142
143,5129.228027434332,-0.11400900781154633,0.0,894.0476190476195,14.3014301430143
144,5129.228027434332,-0.11400900781154633,0.0,894.0476190476195,14.401440144014401
145,5129.228027434332,-0.11400900781154633,0.0,894.0476190476195,14.5014501450145
146,5129.228027434332,-0.11400900781154633,0.0,894.0476190476195,14.6014601460146
147,5129.228027434332,-0.11400900781154633,0.0,894.0476190476195,14.701470147014701
148,5129.228027434332,-0.11400900781154633,0.0,894.0476190476195,14.8014801480148
149,5129.228027434332,-0.11400900781154633,0.0,894.0476190476195,14.9014901490149
150,5129.228027434332,-0.11400900781154633,0.0,894.0476190476195,15.001500150015001
151,5129.228027434332,-0.11400900781154633,0.0,894.0476190476195,15.1015101510151
152,5129.228027434332,-0.11400900781154633,0.0,894.0476190476195,15.2015201520152
153,5129.228027434332,-0.11400900781154633,0.0,894.0476190476195,15.301530153015301
154,5129.228027434332,-0.11400900781154633,0.0,894.0476190476195,15.4015401540154
155,5129.228027434332,-0.11400900781154633,0.0,894.0476190476195,15.5015501550155
156,5129.228027434332,-0.11400900781154633,0.0,894.0476190476195,15.601560156015601
157,5129.228027434332,-0.11400900781154633,0.0,894.0476190476195,15.7015701570157
158,5129.228027434332,-0.11400900781154633,0.0,894.0476190476195,15.8015801580158
159,5129.228027434332,-0.11400900781154633,0.0,894.0476190476195,15.901590159015901
160,5129.228027434332,-0.11400900781154633,0.0,894.0476190476195,16.001600160016
161,5129.228027434332,-0.11400900781154633,0.0,894.0476190476195,16.1016101610161
162,5129.228027434332,-0.11400900781154633,0.0,894.0476190476195,16.2016201620162
163,5129.228027434332,-0.11400900781154633,0.0,894.0476190476195,16.301630163016302
164,5129.228027434332,-0.11400900781154633,0.0,894.0476190476195,16.4016401640164
165,5129.228027434332,-0.11400900781154633,0.0,894.0476190476195,16.5016501650165
166,5129.228027434332,-0.11400900781154633,0.0,894.0476190476195,16.6016601660166
167,5129.228027434332,-0.11400900781154633,0.0,894.0476190476195,16.7016701670167
168,5129.228027434332,-0.11400900781154633,0.0,894.0476190476195,16.8016801680168
169,5129.228027434332,-0.11400900781154633,0.0,894.0476190476195,16.901690169016902
170,5129.228027434332,-0.11400900781154633,0.0,894.0476190476195,17.001700170017
171,5129.228027434332,-0.11400900781154633,0.0,894.0476190476195,17.1017101710171
172,5129.228027434332,-0.11400900781154633,0.0,894.0476190476195,17.2017201720172
173,5129.228027434332,-0.11400900781154633,0.0,894.0476190476195,17.3017301730173
174,5129.228027434332,-0.11400900781154633,0.0,894.0476190476195,17.4017401740174
175,5129.228027434332,-0.11400900781154633,0.0,894.0476190476195,17.501750175017502
176,5129.228027434332,-0.11400900781154633,0.0,894.0476190476195,17.6017601760176
177,5129.228027434332,-0.11400900781154633,0.0,894.0476190476195,17.7017701770177
178,5129.228027434332,-0.11400900781154633,0.0,894.0476190476195,17.8017801780178
179,5129.228027434332,-0.11400900781154633,0.0,894.0476190476195,17.9017901790179
180,5129.228027434332,-0.11400900781154633,0.0,894.0476190476195,18.001800180018
181,5129.228027434332,-0.11400900781154633,0.0,894.0476190476195,18.101810181018102
182,5129.228027434332,-0.11400900781154633,0.0,894.0476190476195,18.2018201820182
183,5129.228027434332,-0.11400900781154633,0.0,894.0476190476195,18.3018301830183
184,5129.228027434332,-0.11400900781154633,0.0,894.0476190476195,18.4018401840184
185,5129.228027434332,-0.11400900781154633,0.0,894.0476190476195,18.5018501850185
186,5129.228027434332,-0.11400900781154633,0.0,894.0476190476195,18.6018601860186
187,5129.228027434332,-0.11400900781154633,0.0,894.0476190476195,18.701870187018702
188,5129.228027434332,-0.11400900781154633,0.0,894.0476190476195,18.8018801880188
189,5129.228027434332,-0.11400900781154633,0.0,894.0476190476195,18.9018901890189
190,5129.228027434332,-0.11400900781154633,0.0,894.0476190476195,19.001900190019
191,5129.228027434332,-0.11400900781154633,0.0,894.0476190476195,19.1019101910191
192,5129.228027434332,-0.11400900781154633,0.0,894.0476190476195,19.2019201920192
193,5129.228027434332,-0.11400900781154633,0.0,894.0476190476195,19.301930193019302
194,5129.228027434332,-0.11400900781154633,0.0,894.0476190476195,19.4019401940194
195,5129.228027434332,-0.11400900781154633,0.0,894.0476190476195,19.5019501950195
196,5129.228027434332,-0.11400900781154633,0.0,894.0476190476195,19.6019601960196
197,5129.228027434332,-0.11400900781154633,0.0,894.0476190476195,19.7019701970197
198,5129.228027434332,-0.11400900781154633,0.0,894.0476190476195,19.801980198019802
199,5129.228027434332,-0.11400900781154633,0.0,894.0476190476195,19.901990199019902
200,5129.228027434332,-0.11400900781154633,0.0,894.0476190476195,20.00200020002
201,5129.228027434332,-0.11400900781154633,0.0,894.0476190476195,20.1020102010201
202,5129.228027434332,-0.11400900781154633,0.0,894.0476190476195,20.2020202020202
203,5129.228027434332,-0.11400900781154633,0.0,894.0476190476195,20.3020302030203
204,5129.228027434332,-0.11400900781154633,0.0,894.0476190476195,20.402040204020402
205,5129.228027434332,-0.11400900781154633,0.0,894.0476190476195,20.502050205020502
206,5129.228027434332,-0.11400900781154633,0.0,894.0476190476195,20.6020602060206
207,5129.228027434332,-0.11400900781154633,0.0,894.0476190476195,20.7020702070207
208,5129.228027434332,-0.11400900781154633,0.0,894.0476190476195,20.8020802080208
209,5129.228027434332,-0.11400900781154633,0.0,894.0476190476195,20.9020902090209
210,5129.228027434332,-0.11400900781154633,0.0,894.0476190476195,21.002100210021002
211,5129.228027434332,-0.11400900781154633,0.0,894.0476190476195,21.102110211021103
212,5129.228027434332,-0.11400900781154633,0.0,894.0476190476195,21.2021202120212
213,5129.228027434332,-0.11400900781154633,0.0,894.0476190476195,21.3021302130213
214,5129.228027434332,-0.11400900781154633,0.0,894.0476190476195,21.4021402140214
215,5129.228027434332,-0.11400900781154633,0.0,894.0476190476195,21.5021502150215
216,5129.228027434332,-0.11400900781154633,0.0,894.0476190476195,21.602160216021602
217,5129.228027434332,-0.11400900781154633,0.0,894.0476190476195,21.702170217021703
218,5129.228027434332,-0.11400900781154633,0.0,894.0476190476195,21.8021802180218
219,5129.228027434332,-0.11400900781154633,0.0,894.0476190476195,21.9021902190219
220,5129.228027434332,-0.11400900781154633,0.0,894.0476190476195,22.002200220022
221,5129.228027434332,-0.11400900781154633,0.0,894.0476190476195,22.1022102210221
222,5129.228027434332,-0.11400900781154633,0.0,894.0476190476195,22.202220222022202
223,5129.228027434332,-0.11400900781154633,0.0,894.0476190476195,22.302230223022303
224,5129.228027434332,-0.11400900781154633,0.0,894.0476190476195,22.4022402240224
225,5129.228027434332,-0.11400900781154633,0.0,894.0476190476195,22.5022502250225
226,5129.228027434332,-0.11400900781154633,0.0,894.0476190476195,22.6022602260226
227,5129.228027434332,-0.11400900781154633,0.0,894.0476190476195,22.7022702270227
228,5129.228027434332,-0.11400900781154633,0.0,894.0476190476195,22.802280228022802
229,5129.228027434332,-0.11400900781154633,0.0,894.0476190476195,22.902290229022903
230,5129.228027434332,-0.11400900781154633,0.0,894.0476190476195,23.002300230023
231,5129.228027434332,-0.11400900781154633,0.0,894.0476190476195,23.1023102310231
232,5129.228027434332,-0.11400900781154633,0.0,894.0476190476195,23.2023202320232
233,5129.228027434332,-0.11400900781154633,0.0,894.0476190476195,23.3023302330233
234,5129.228027434332,-0.11400900781154633,0.0,894.0476190476195,23.402340234023402
235,5129.228027434332,-0.11400900781154633,0.0,894.0476190476195,23.502350235023503
236,5129.228027434332,-0.11400900781154633,0.0,894.0476190476195,23.6023602360236
237,5129.228027434332,-0.11400900781154633,0.0,894.0476190476195,23.7023702370237
238,5129.228027434332,-0.11400900781154633,0.0,894.0476190476195,23.8023802380238
239,5129.228027434332,-0.11400900781154633,0.0,894.0476190476195,23.9023902390239
