,distance,altitude,velocity,mass,time
0,0.0,0.0,0.0,1534.0,0.0
1,4.471857366870307,0.07349073886871338,89.66089774881605,1534.0,0.1000100010001
2,17.972624119617183,0.2984355464577675,180.609522864707,1490.857142857143,0.2000200020002
3,40.632777461847795,0.6816963702440262,272.882135559696,1490.857142857143,0.3000300030003
4,72.58648377671999,1.230346143245697,366.51637123026984,1447.7142857142858,0.4000400040004
5,113.97173904017785,1.95167775452137,461.5512770933118,1447.7142857142858,0.5000500050005
6,164.93449035912198,2.7363109663128853,558.0826020562624,1404.5714285714287,0.6000600060006
7,225.6292360840027,3.321035798639059,656.1230734907587,1404.5714285714287,0.7000700070007
8,296.2064539398738,3.655094485729933,755.6964914565469,1361.4285714285716,0.8000800080008
9,376.8196153334028,3.693733662366867,856.8306915695126,1361.4285714285716,0.9000900090009001
10,467.6247713993026,3.396656896919012,959.5486508014166,1318.2857142857144,1.000100010001
11,568.7797565743293,2.727004148066044,1063.863324733935,1318.2857142857144,1.1001100110011
12,680.4443358953287,1.6506319008767605,1169.786934971868,1275.1428571428573,1.2001200120012
13,802.7828570121981,0.5954282730817795,1277.390848502171,1275.1428571428573,1.3001300130013
14,912.8630565254066,-0.09646668285131454,1368.4506578097198,1232.0000000000002,1.4001400140014
15,912.8630565254066,-0.09646668285131454,0.0,1232.0000000000002,1.5001500150015001
16,912.8630565254066,-0.09646668285131454,0.0,1224.809523809524,1.6001600160016
17,912.8630565254066,-0.09646668285131454,0.0,1224.809523809524,1.7001700170017
18,912.8630565254066,-0.09646668285131454,0.0,1224.809523809524,1.8001800180018002
19,912.8630565254066,-0.09646668285131454,0.0,1224.809523809524,1.9001900190019
20,912.8630565254066,-0.09646668285131454,0.0,1224.809523809524,2.000200020002
21,912.8630565254066,-0.09646668285131454,0.0,1224.809523809524,2.1002100210021
22,912.8630565254066,-0.09646668285131454,0.0,1224.809523809524,2.2002200220022
23,912.8630565254066,-0.09646668285131454,0.0,1224.809523809524,2.3002300230023
24,912.8630565254066,-0.09646668285131454,0.0,1224.809523809524,2.4002400240024
25,912.8630565254066,-0.09646668285131454,0.0,1224.809523809524,2.5002500250025
26,912.8630565254066,-0.09646668285131454,0.0,1224.809523809524,2.6002600260026
27,912.8630565254066,-0.09646668285131454,0.0,1224.809523809524,2.7002700270027002
28,912.8630565254066,-0.09646668285131454,0.0,1224.809523809524,2.8002800280028
29,912.8630565254066,-0.09646668285131454,0.0,1224.809523809524,2.9002900290029
30,912.8630565254066,-0.09646668285131454,0.0,1224.809523809524,3.0003000300030003
31,912.8630565254066,-0.09646668285131454,0.0,1224.809523809524,3.1003100310031
32,912.8630565254066,-0.09646668285131454,0.0,1224.809523809524,3.2003200320032
33,912.8630565254066,-0.09646668285131454,0.0,1224.809523809524,3.3003300330033003
34,912.8630565254066,-0.09646668285131454,0.0,1224.809523809524,3.4003400340034
35,912.8630565254066,-0.09646668285131454,0.0,1224.809523809524,3.5003500350035
36,912.8630565254066,-0.09646668285131454,0.0,1224.809523809524,3.6003600360036003
37,912.8630565254066,-0.09646668285131454,0.0,1224.809523809524,3.7003700370037
38,912.8630565254066,-0.09646668285131454,0.0,1224.809523809524,3.8003800380038
39,912.8630565254066,-0.09646668285131454,0.0,1224.809523809524,3.9003900390039004
40,912.8630565254066,-0.09646668285131454,0.0,1224.809523809524,4.000400040004
41,912.8630565254066,-0.09646668285131454,0.0,1224.809523809524,4.1004100410041
42,912.8630565254066,-0.09646668285131454,0.0,1224.809523809524,4.2004200420042
43,912.8630565254066,-0.09646668285131454,0.0,1224.809523809524,4.3004300430043
44,912.8630565254066,-0.09646668285131454,0.0,1224.809523809524,4.4004400440044
45,912.8630565254066,-0.09646668285131454,0.0,1224.809523809524,4.5004500450045
46,912.8630565254066,-0.09646668285131454,0.0,1224.809523809524,4.6004600460046
47,912.8630565254066,-0.09646668285131454,0.0,1224.809523809524,4.7004700470047
48,912.8630565254066,-0.09646668285131454,0.0,1224.809523809524,4.8004800480048
49,912.8630565254066,-0.09646668285131454,0.0,1224.809523809524,4.9004900490049
50,912.8630565254066,-0.09646668285131454,0.0,1224.809523809524,5.000500050005
51,912.8630565254066,-0.09646668285131454,0.0,1224.809523809524,5.1005100510051005
52,912.8630565254066,-0.09646668285131454,0.0,1224.809523809524,5.2005200520052
53,912.8630565254066,-0.09646668285131454,0.0,1224.809523809524,5.3005300530053
54,912.8630565254066,-0.09646668285131454,0.0,1224.809523809524,5.4005400540054005
55,912.8630565254066,-0.09646668285131454,0.0,1224.809523809524,5.5005500550055
56,912.8630565254066,-0.09646668285131454,0.0,1224.809523809524,5.6005600560056
57,912.8630565254066,-0.09646668285131454,0.0,1224.809523809524,5.7005700570057005
58,912.8630565254066,-0.09646668285131454,0.0,1224.809523809524,5.8005800580058
59,912.8630565254066,-0.09646668285131454,0.0,1224.809523809524,5.9005900590059
60,912.8630565254066,-0.09646668285131454,0.0,1224.809523809524,6.0006000600060005
61,912.8630565254066,-0.09646668285131454,0.0,1224.809523809524,6.1006100610061
62,912.8630565254066,-0.09646668285131454,0.0,1224.809523809524,6.2006200620062
63,912.8630565254066,-0.09646668285131454,0.0,1224.809523809524,6.300630063006301
64,912.8630565254066,-0.09646668285131454,0.0,1224.809523809524,6.4006400640064
65,912.8630565254066,-0.09646668285131454,0.0,1224.809523809524,6.5006500650065
66,912.8630565254066,-0.09646668285131454,0.0,1224.809523809524,6.600660066006601
67,912.8630565254066,-0.09646668285131454,0.0,1224.809523809524,6.7006700670067
68,912.8630565254066,-0.09646668285131454,0.0,1224.809523809524,6.8006800680068
69,912.8630565254066,-0.09646668285131454,0.0,1224.809523809524,6.900690069006901
70,912.8630565254066,-0.09646668285131454,0.0,1224.809523809524,7.000700070007
71,912.8630565254066,-0.09646668285131454,0.0,1224.809523809524,7.1007100710071
72,912.8630565254066,-0.09646668285131454,0.0,1224.809523809524,7.200720072007201
73,912.8630565254066,-0.09646668285131454,0.0,1224.809523809524,7.3007300730073
74,912.8630565254066,-0.09646668285131454,0.0,1224.809523809524,7.4007400740074
75,912.8630565254066,-0.09646668285131454,0.0,1224.809523809524,7.500750075007501
76,912.8630565254066,-0.09646668285131454,0.0,1224.809523809524,7.6007600760076
77,912.8630565254066,-0.09646668285131454,0.0,1224.809523809524,7.7007700770077
78,912.8630565254066,-0.09646668285131454,0.0,1224.809523809524,7.800780078007801
79,912.8630565254066,-0.09646668285131454,0.0,1224.809523809524,7.9007900790079
80,912.8630565254066,-0.09646668285131454,0.0,1224.809523809524,8.000800080008
81,912.8630565254066,-0.09646668285131454,0.0,1224.809523809524,8.1008100810081
82,912.8630565254066,-0.09646668285131454,0.0,1224.809523809524,8.2008200820082
83,912.8630565254066,-0.09646668285131454,0.0,1224.809523809524,8.3008300830083
84,912.8630565254066,-0.09646668285131454,0.0,1224.809523809524,8.4008400840084
85,912.8630565254066,-0.09646668285131454,0.0,1224.809523809524,8.5008500850085
86,912.8630565254066,-0.09646668285131454,0.0,1224.809523809524,8.6008600860086
87,912.8630565254066,-0.09646668285131454,0.0,1224.809523809524,8.7008700870087
88,912.8630565254066,-0.09646668285131454,0.0,1224.809523809524,8.8008800880088
89,912.8630565254066,-0.09646668285131454,0.0,1224.809523809524,8.9008900890089
90,912.8630565254066,-0.09646668285131454,0.0,1224.809523809524,9.000900090009
91,912.8630565254066,-0.09646668285131454,0.0,1224.809523809524,9.1009100910091
92,912.8630565254066,-0.09646668285131454,0.0,1224.809523809524,9.2009200920092
93,912.8630565254066,-0.09646668285131454,0.0,1224.809523809524,9.3009300930093
94,912.8630565254066,-0.09646668285131454,0.0,1224.809523809524,9.4009400940094
95,912.8630565254066,-0.09646668285131454,0.0,1224.809523809524,9.5009500950095
96,912.8630565254066,-0.09646668285131454,0.0,1224.809523809524,9.6009600960096
97,912.8630565254066,-0.09646668285131454,0.0,1224.809523809524,9.7009700970097
98,912.8630565254066,-0.09646668285131454,0.0,1224.809523809524,9.8009800980098
99,912.8630565254066,-0.09646668285131454,0.0,1224.809523809524,9.900990099009901
100,912.8630565254066,-0.09646668285131454,0.0,1224.809523809524,10.00100010001
101,912.8630565254066,-0.09646668285131454,0.0,1224.809523809524,10.1010101010101
102,912.8630565254066,-0.09646668285131454,0.0,1224.809523809524,10.201020102010201
103,912.8630565254066,-0.09646668285131454,0.0,1224.809523809524,10.3010301030103
104,912.8630565254066,-0.09646668285131454,0.0,1224.809523809524,10.4010401040104
105,912.8630565254066,-0.09646668285131454,0.0,1224.809523809524,10.501050105010501
106,912.8630565254066,-0.09646668285131454,0.0,1224.809523809524,10.6010601060106
107,912.8630565254066,-0.09646668285131454,0.0,1224.809523809524,10.7010701070107
108,912.8630565254066,-0.09646668285131454,0.0,1224.809523809524,10.801080108010801
109,912.8630565254066,-0.09646668285131454,0.0,1224.809523809524,10.9010901090109
110,912.8630565254066,-0.09646668285131454,0.0,1224.809523809524,11.001100110011
111,912.8630565254066,-0.09646668285131454,0.0,1224.809523809524,11.101110111011101
112,912.8630565254066,-0.09646668285131454,0.0,1224.809523809524,11.2011201120112
113,912.8630565254066,-0.09646668285131454,0.0,1224.809523809524,11.3011301130113
114,912.8630565254066,-0.09646668285131454,0.0,1224.809523809524,11.401140114011401
115,912.8630565254066,-0.09646668285131454,0.0,1224.809523809524,11.5011501150115
116,912.8630565254066,-0.09646668285131454,0.0,1224.809523809524,11.6011601160116
117,912.8630565254066,-0.09646668285131454,0.0,1224.809523809524,11.701170117011701
118,912.8630565254066,-0.09646668285131454,0.0,1224.809523809524,11.8011801180118
119,912.8630565254066,-0.09646668285131454,0.0,1224.809523809524,11.9011901190119
120,912.8630565254066,-0.09646668285131454,0.0,1224.809523809524,12.001200120012001
121,912.8630565254066,-0.09646668285131454,0.0,1224.809523809524,12.1012101210121
122,912.8630565254066,-0.09646668285131454,0.0,1224.809523809524,12.2012201220122
123,912.8630565254066,-0.09646668285131454,0.0,1224.809523809524,12.301230123012301
124,912.8630565254066,-0.09646668285131454,0.0,1224.809523809524,12.4012401240124
125,912.8630565254066,-0.09646668285131454,0.0,1224.809523809524,12.5012501250125
126,912.8630565254066,-0.09646668285131454,0.0,1224.809523809524,12.601260126012601
127,912.8630565254066,-0.09646668285131454,0.0,1224.809523809524,12.7012701270127
128,912.8630565254066,-0.09646668285131454,0.0,1224.809523809524,12.8012801280128
129,912.8630565254066,-0.09646668285131454,0.0,1224.809523809524,12.901290129012901
130,912.8630565254066,-0.09646668285131454,0.0,1224.809523809524,13.001300130013
131,912.8630565254066,-0.09646668285131454,0.0,1224.809523809524,13.1013101310131
132,912.8630565254066,-0.09646668285131454,0.0,1224.809523809524,13.201320132013201
133,912.8630565254066,-0.09646668285131454,0.0,1224.809523809524,13.3013301330133
134,912.8630565254066,-0.09646668285131454,0.0,1224.809523809524,13.4013401340134
135,912.8630565254066,-0.09646668285131454,0.0,1224.809523809524,13.501350135013501
136,912.8630565254066,-0.09646668285131454,0.0,1224.809523809524,13.6013601360136
137,912.8630565254066,-0.09646668285131454,0.0,1224.809523809524,13.7013701370137
138,912.8630565254066,-0.09646668285131454,0.0,1224.809523809524,13.801380138013801
139,912.8630565254066,-0.09646668285131454,0.0,1224.809523809524,13.9013901390139
140,912.8630565254066,-0.09646668285131454,0.0,1224.809523809524,14.001400140014
141,912.8630565254066,-0.09646668285131454,0.0,1224.809523809524,14.101410141014101
142,912.8630565254066,-0.09646668285131454,0.0,1224.809523809524,14.2014201420142
143,912.8630565254066,-0.09646668285131454,0.0,1224.809523809524,14.3014301430143
144,912.8630565254066,-0.09646668285131454,0.0,1224.809523809524,14.401440144014401
145,912.8630565254066,-0.09646668285131454,0.0,1224.809523809524,14.5014501450145
146,912.8630565254066,-0.09646668285131454,0.0,1224.809523809524,14.6014601460146
147,912.8630565254066,-0.09646668285131454,0.0,1224.809523809524,14.701470147014701
148,912.8630565254066,-0.09646668285131454,0.0,1224.809523809524,14.8014801480148
149,912.8630565254066,-0.09646668285131454,0.0,1224.809523809524,14.9014901490149
150,912.8630565254066,-0.09646668285131454,0.0,1224.809523809524,15.001500150015001
151,912.8630565254066,-0.09646668285131454,0.0,1224.809523809524,15.1015101510151
152,912.8630565254066,-0.09646668285131454,0.0,1224.809523809524,15.2015201520152
153,912.8630565254066,-0.09646668285131454,0.0,1224.809523809524,15.301530153015301
154,912.8630565254066,-0.09646668285131454,0.0,1224.809523809524,15.4015401540154
155,912.8630565254066,-0.09646668285131454,0.0,1224.809523809524,15.5015501550155
156,912.8630565254066,-0.09646668285131454,0.0,1224.809523809524,15.601560156015601
157,912.8630565254066,-0.09646668285131454,0.0,1224.809523809524,15.7015701570157
158,912.8630565254066,-0.09646668285131454,0.0,1224.809523809524,15.8015801580158
159,912.8630565254066,-0.09646668285131454,0.0,1224.809523809524,15.901590159015901
160,912.8630565254066,-0.09646668285131454,0.0,1224.809523809524,16.001600160016
161,912.8630565254066,-0.09646668285131454,0.0,1224.809523809524,16.1016101610161
162,912.8630565254066,-0.09646668285131454,0.0,1224.809523809524,16.2016201620162
163,912.8630565254066,-0.09646668285131454,0.0,1224.809523809524,16.301630163016302
164,912.8630565254066,-0.09646668285131454,0.0,1224.809523809524,16.4016401640164
165,912.8630565254066,-0.09646668285131454,0.0,1224.809523809524,16.5016501650165
166,912.8630565254066,-0.09646668285131454,0.0,1224.809523809524,16.6016601660166
167,912.8630565254066,-0.09646668285131454,0.0,1224.809523809524,16.7016701670167
168,912.8630565254066,-0.09646668285131454,0.0,1224.809523809524,16.8016801680168
169,912.8630565254066,-0.09646668285131454,0.0,1224.809523809524,16.901690169016902
170,912.8630565254066,-0.09646668285131454,0.0,1224.809523809524,17.001700170017
171,912.8630565254066,-0.09646668285131454,0.0,1224.809523809524,17.1017101710171
172,912.8630565254066,-0.09646668285131454,0.0,1224.809523809524,17.2017201720172
173,912.8630565254066,-0.09646668285131454,0.0,1224.809523809524,17.3017301730173
174,912.8630565254066,-0.09646668285131454,0.0,1224.809523809524,17.4017401740174
175,912.8630565254066,-0.09646668285131454,0.0,1224.809523809524,17.501750175017502
176,912.8630565254066,-0.09646668285131454,0.0,1224.809523809524,17.6017601760176
177,912.8630565254066,-0.09646668285131454,0.0,1224.809523809524,17.7017701770177
178,912.8630565254066,-0.09646668285131454,0.0,1224.809523809524,17.8017801780178
179,912.8630565254066,-0.09646668285131454,0.0,1224.809523809524,17.9017901790179
180,912.8630565254066,-0.09646668285131454,0.0,1224.809523809524,18.001800180018
181,912.8630565254066,-0.09646668285131454,0.0,1224.809523809524,18.101810181018102
182,912.8630565254066,-0.09646668285131454,0.0,1224.809523809524,18.2018201820182
183,912.8630565254066,-0.09646668285131454,0.0,1224.809523809524,18.3018301830183
184,912.8630565254066,-0.09646668285131454,0.0,1224.809523809524,18.4018401840184
185,912.8630565254066,-0.09646668285131454,0.0,1224.809523809524,18.5018501850185
186,912.8630565254066,-0.09646668285131454,0.0,1224.809523809524,18.6018601860186
187,912.8630565254066,-0.09646668285131454,0.0,1224.809523809524,18.701870187018702
188,912.8630565254066,-0.09646668285131454,0.0,1224.809523809524,18.8018801880188
189,912.8630565254066,-0.09646668285131454,0.0,1224.809523809524,18.9018901890189
190,912.8630565254066,-0.09646668285131454,0.0,1224.809523809524,19.001900190019
191,912.8630565254066,-0.09646668285131454,0.0,1224.809523809524,19.1019101910191
192,912.8630565254066,-0.09646668285131454,0.0,1224.809523809524,19.2019201920192
193,912.8630565254066,-0.09646668285131454,0.0,1224.809523809524,19.301930193019302
194,912.8630565254066,-0.09646668285131454,0.0,1224.809523809524,19.4019401940194
195,912.8630565254066,-0.09646668285131454,0.0,1224.809523809524,19.5019501950195
196,912.8630565254066,-0.09646668285131454,0.0,1224.809523809524,19.6019601960196
197,912.8630565254066,-0.09646668285131454,0.0,1224.809523809524,19.7019701970197
198,912.8630565254066,-0.09646668285131454,0.0,1224.809523809524,19.801980198019802
199,912.8630565254066,-0.09646668285131454,0.0,1224.809523809524,19.901990199019902
200,912.8630565254066,-0.09646668285131454,0.0,1224.809523809524,20.00200020002
201,912.8630565254066,-0.09646668285131454,0.0,1224.809523809524,20.1020102010201
202,912.8630565254066,-0.09646668285131454,0.0,1224.809523809524,20.2020202020202
203,912.8630565254066,-0.09646668285131454,0.0,1224.809523809524,20.3020302030203
204,912.8630565254066,-0.09646668285131454,0.0,1224.809523809524,20.402040204020402
205,912.8630565254066,-0.09646668285131454,0.0,1224.809523809524,20.502050205020502
206,912.8630565254066,-0.09646668285131454,0.0,1224.809523809524,20.6020602060206
207,912.8630565254066,-0.09646668285131454,0.0,1224.809523809524,20.7020702070207
208,912.8630565254066,-0.09646668285131454,0.0,1224.809523809524,20.8020802080208
209,912.8630565254066,-0.09646668285131454,0.0,1224.809523809524,20.9020902090209
210,912.8630565254066,-0.09646668285131454,0.0,1224.809523809524,21.002100210021002
211,912.8630565254066,-0.09646668285131454,0.0,1224.809523809524,21.102110211021103
212,912.8630565254066,-0.09646668285131454,0.0,1224.809523809524,21.2021202120212
213,912.8630565254066,-0.09646668285131454,0.0,1224.809523809524,21.3021302130213
214,912.8630565254066,-0.09646668285131454,0.0,1224.809523809524,21.4021402140214
215,912.8630565254066,-0.09646668285131454,0.0,1224.809523809524,21.5021502150215
216,912.8630565254066,-0.09646668285131454,0.0,1224.809523809524,21.602160216021602
217,912.8630565254066,-0.09646668285131454,0.0,1224.809523809524,21.702170217021703
218,912.8630565254066,-0.09646668285131454,0.0,1224.809523809524,21.8021802180218
219,912.8630565254066,-0.09646668285131454,0.0,1224.809523809524,21.9021902190219
220,912.8630565254066,-0.09646668285131454,0.0,1224.809523809524,22.002200220022
221,912.8630565254066,-0.09646668285131454,0.0,1224.809523809524,22.1022102210221
222,912.8630565254066,-0.09646668285131454,0.0,1224.809523809524,22.202220222022202
223,912.8630565254066,-0.09646668285131454,0.0,1224.809523809524,22.302230223022303
224,912.8630565254066,-0.09646668285131454,0.0,1224.809523809524,22.4022402240224
225,912.8630565254066,-0.09646668285131454,0.0,1224.809523809524,22.5022502250225
226,912.8630565254066,-0.09646668285131454,0.0,1224.809523809524,22.6022602260226
227,912.8630565254066,-0.09646668285131454,0.0,1224.809523809524,22.7022702270227
228,912.8630565254066,-0.09646668285131454,0.0,1224.809523809524,22.802280228022802
229,912.8630565254066,-0.09646668285131454,0.0,1224.809523809524,22.902290229022903
230,912.8630565254066,-0.09646668285131454,0.0,1224.809523809524,23.002300230023
231,912.8630565254066,-0.09646668285131454,0.0,1224.809523809524,23.1023102310231
232,912.8630565254066,-0.09646668285131454,0.0,1224.809523809524,23.2023202320232
233,912.8630565254066,-0.09646668285131454,0.0,1224.809523809524,23.3023302330233
234,912.8630565254066,-0.09646668285131454,0.0,1224.809523809524,23.402340234023402
235,912.8630565254066,-0.09646668285131454,0.0,1224.809523809524,23.502350235023503
236,912.8630565254066,-0.09646668285131454,0.0,1224.809523809524,23.6023602360236
237,912.8630565254066,-0.09646668285131454,0.0,1224.809523809524,23.7023702370237
238,912.8630565254066,-0.09646668285131454,0.0,1224.809523809524,23.8023802380238
239,912.8630565254066,-0.09646668285131454,0.0,1224.809523809524,23.9023902390239
240,912.8630565254066,-0.09646668285131454,0.0,1224.809523809524,24.002400240024002
241,912.8630565254066,-0.09646668285131454,0.0,1224.809523809524,24.102410241024103
242,912.8630565254066,-0.09646668285131454,0.0,1224.809523809524,24.2024202420242
