,distance,altitude,velocity,mass,time
0,0.0,0.0,0.0,1534.0,0.0
1,0.22845079177814803,0.14990859851241112,21.87262606101864,1534.0,0.025000625015625392
2,0.9148782484651518,0.6003871932625771,43.82409928952048,1523.2142857142858,0.050001250031250784
3,2.0609032910999976,1.3525708876550198,65.85496377109801,1523.2142857142858,0.07500187504687618
4,3.6681579886568563,2.407602645456791,87.9675322264509,1512.4285714285716,0.10000250006250157
5,5.745195577735035,3.756411511451006,110.17224736204363,1512.4285714285716,0.12500312507812697
6,8.29877732199125,5.392500564455986,132.46222707799686,1501.6428571428573,0.15000375009375236
7,11.332341604674669,7.314276468008757,154.83735161905233,1501.6428571428573,0.17500437510937775
8,14.849070741741937,9.52054500579834,177.297701052434,1490.8571428571431,0.20000500012500314
9,18.851965226861406,12.010405790060759,199.8434822034118,1490.8571428571431,0.22500562514062852
10,23.3438911224906,14.783184427767992,222.47498830003818,1480.071428571429,0.25000625015625394
11,28.32761217486901,17.83838624879718,245.19257483089052,1480.071428571429,0.27500687517187933
12,33.80581259273077,21.175663333386183,267.99664420848296,1469.2857142857147,0.3000075001875047
13,39.78111379723881,24.794790159910917,290.88763555965664,1469.2857142857147,0.3250081252031301
14,46.256087105242585,28.695645090192556,313.86601766951713,1458.5000000000005,0.3500087502187555
15,53.23326357018374,32.87819604575634,336.93228395344374,1458.5000000000005,0.3750093752343809
16,60.715141776890086,37.34248908609152,360.0869487824499,1447.7142857142862,0.40001000025000627
17,68.70419412629622,42.08863925933838,383.33054474024897,1447.7142857142862,0.42501062526563166
18,77.20287198169223,47.116823114454746,406.6636205391019,1436.928571428572,0.45001125028125705
19,86.21360994068087,52.427272498607635,430.0867389914533,1436.928571428572,0.47501187529688244
20,95.73882929591777,58.02026930078864,453.6004617832339,1426.1428571428578,0.5000125003125079
21,105.78094081853156,63.896140936762094,477.20536269031237,1426.1428571428578,0.5250131253281333
22,116.34234757247941,70.0552567243576,500.9020355829196,1415.3571428571436,0.5500137503437587
23,127.42544723181288,76.49802474677563,524.6910821300417,1415.3571428571436,0.575014375359384
24,139.0326336375942,83.22488882765174,548.5730789183269,1404.5714285714294,0.6000150003750094
25,151.16629818626487,90.23632594943047,572.5486188167525,1404.5714285714294,0.6250156253906348
26,163.8288306104194,97.53284372389317,596.6182231955461,1393.7857142857151,0.6500162504062602
27,177.02261986268027,105.11497826874256,620.7824720270048,1393.7857142857151,0.6750168754218856
28,190.75005561843204,112.98329277709126,645.0419150029068,1383.000000000001,0.700017500437511
29,205.01352929170284,121.13837600126863,669.3971514999843,1383.000000000001,0.7250181254531364
30,219.81543493379368,129.58084093406796,693.8486811029252,1372.2142857142867,0.7500187504687618
31,235.15816586282222,138.31132124736905,718.3968480245609,1372.2142857142867,0.7750193754843872
32,251.0441166816426,147.33047093078494,743.0421949551837,1361.4285714285725,0.8000200005000125
33,267.47568492634707,156.63896392285824,767.7851058436764,1361.4285714285725,0.8250206255156379
34,284.4552676814375,166.2374909631908,792.6259387169973,1350.6428571428582,0.8500212505312633
35,301.9852653111093,176.12676060199738,817.5652234857157,1350.6428571428582,0.8750218755468887
36,320.0680832365721,186.30749920010567,842.6034768105694,1339.857142857144,0.9000225005625141
37,338.7061318345093,196.7804499603808,867.7411382084672,1339.857142857144,0.9250231255781395
38,357.9018187260515,207.54636773839593,892.9780887101145,1329.0714285714298,0.9500237505937649
39,377.6575490588078,218.60601845011115,918.3148002492878,1329.0714285714298,0.9750243756093903
40,397.9757345941302,229.96018347144127,943.7517581778429,1318.2857142857156,1.0000250006250158
41,418.85878921810234,241.60965645313263,969.2890141992823,1318.2857142857156,1.0250256256406411
42,440.30911949333563,253.55523747578263,994.9264810201787,1307.5000000000014,1.0500262506562665
43,462.3291307389305,265.79773588851094,1020.6644296954908,1307.5000000000014,1.075026875671892
44,484.9212301107301,278.33797151222825,1046.5031206595932,1296.7142857142871,1.1000275006875173
45,508.0878264084905,291.17677407339215,1072.4427956366192,1296.7142857142871,1.1250281257031427
46,531.831335710982,304.31498586013913,1098.4846989019252,1285.928571428573,1.150028750718768
47,556.1542282051215,317.75348718836904,1124.6323008747652,1285.928571428573,1.1750293757343935
48,581.05903769028,331.49320114403963,1150.8884118450828,1275.1428571428587,1.2000300007500189
49,606.5483954946009,345.53511177003384,1177.2608745510859,1275.1428571428587,1.2250306257656443
50,632.6251652841003,359.8803377151489,1203.759880433897,1264.3571428571445,1.2500312507812696
51,659.2922294608745,374.53001407161355,1230.377560606056,1264.3571428571445,1.275031875796895
52,686.5523314490582,389.48520539700985,1257.1118773919795,1253.5714285714303,1.3000325008125204
53,714.4081843149816,404.7469653189182,1283.961503361976,1253.5714285714303,1.3250331258281458
54,742.8624944435164,420.31634936481714,1310.9272789554489,1242.785714285716,1.3500337508437712
55,771.9179818182548,436.19442581757903,1338.0095674445433,1242.785714285716,1.3750343758593966
56,801.5773726324953,452.38227143883705,1365.2090442259132,1232.0000000000018,1.400035000875022
57,831.8434137553171,468.8809791356325,1392.5269465926287,1232.0000000000018,1.4250356258906474
58,862.7188754787869,485.6916592679918,1419.9643265224283,1221.2142857142876,1.4500362509062728
59,894.2065468041707,502.81543681025505,1447.5219642601692,1221.2142857142876,1.4750368759218981
60,926.3092309301727,520.2534487210214,1475.200681572127,1210.4285714285734,1.5000375009375235
61,959.0297505712356,538.0068466477096,1503.0015211011848,1210.4285714285734,1.525038125953149
62,992.3709498560721,556.0767977647483,1530.9255414782222,1199.6428571428592,1.5500387509687743
63,1026.3356947586437,574.4644848257303,1558.9738248626443,1199.6428571428592,1.5750393759843997
64,1060.9268749319226,593.1711070016026,1587.1475879079605,1188.857142857145,1.600040001000025
65,1096.1474043628486,612.1978800408542,1615.4479185055932,1188.857142857145,1.6250406260156505
66,1132.0002193851033,631.5460350811481,1643.8759309983918,1178.0714285714307,1.6500412510312759
67,1168.4882800331632,651.216819178313,1672.4327767180368,1178.0714285714307,1.6750418760469012
68,1205.6145705816598,671.2114954963326,1701.1196253891994,1167.2857142857165,1.7000425010625266
69,1243.3821000126318,691.5313434116542,1729.9376655171359,1167.2857142857165,1.725043126078152
70,1281.7939024891405,712.1776586137712,1758.8881047860912,1156.5000000000023,1.7500437510937774
71,1320.8530378356345,733.1517532765865,1787.9721704688116,1156.5000000000023,1.7750443761094028
72,1360.5625918466983,754.4549560584128,1817.1910598171946,1145.714285714288,1.8000450011250282
73,1400.9256727989643,776.08861014992,1846.5457512395712,1145.714285714288,1.8250456261406536
74,1441.945412126894,798.0540735051036,1876.037480482854,1134.9285714285738,1.850046251156279
75,1483.6249682819105,820.3527208156884,1905.6675279319597,1134.9285714285738,1.8750468761719044
76,1525.9675272236216,842.9859436713159,1935.437194479064,1124.1428571428596,1.9000475011875297
77,1568.9763029191138,865.9551507160068,1965.347801962774,1124.1428571428596,1.9250481262031551
78,1612.6545378506648,889.2617678195238,1995.4006936194123,1113.3571428571454,1.9500487512187805
79,1657.0055035322282,912.9072382748127,2025.5972345426612,1113.3571428571454,1.975049376234406
80,1702.0325001525025,936.8930225037038,2055.938691472415,1102.5714285714312,2.0000500012500315
81,1747.7388543339346,961.220596767962,2086.42634221587,1102.5714285714312,2.025050626265657
82,1794.127922089281,985.8914546966553,2117.0616020944353,1091.785714285717,2.0500512512812823
83,1841.2030902098775,1010.907107885927,2147.845909489773,1091.785714285717,2.0750518762969077
84,1888.96777681359,1036.269086163491,2178.780726349011,1081.0000000000027,2.100052501312533
85,1937.4254319031463,1061.978937778622,2209.8675387040266,1081.0000000000027,2.1250531263281585
86,1986.57953793522,1088.0382296331227,2241.1078572052415,1070.2142857142885,2.150053751343784
87,2036.4336099508473,1114.4485472775996,2272.50314006136,1070.2142857142885,2.1750543763594092
88,2086.9911925862557,1141.2114932611585,2304.054716027884,1059.4285714285743,2.2000550013750346
89,2138.255861735413,1168.3286879397929,2335.7641347711715,1059.4285714285743,2.22505562639066
90,2190.231227626078,1195.8017710335553,2367.6329875307133,1048.64285714286,2.2500562514062854
91,2242.920935426772,1223.6324019059539,2399.6628920777684,1048.64285714286,2.275056876421911
92,2296.328665866135,1251.8222597949207,2431.8554933122427,1037.8571428571458,2.300057501437536
93,2350.458135865082,1280.3730440996587,2464.2124638765126,1037.8571428571458,2.3250581264531616
94,2405.313099182157,1309.2864746674895,2496.7355047867613,1027.0714285714316,2.350058751468787
95,2460.8973470725423,1338.564292050898,2529.4263460824113,1027.0714285714316,2.3750593764844123
96,2517.214708961119,1368.2082578465343,2562.2867474942727,1016.2857142857173,2.4000600015000377
97,2574.2690531300823,1398.2201549634337,2595.318499132036,1016.2857142857173,2.425060626515663
98,2632.064287421529,1428.6017879545689,2628.523422191772,1005.500000000003,2.4500612515312885
99,2690.6043599555296,1459.3549833372235,2661.9033696841357,1005.500000000003,2.475061876546914
100,2749.8932598641536,1490.4815899170935,2695.46022718398,994.7142857142886,2.5000625015625393
101,2809.9350154398207,1521.983477767557,2729.1955313687163,994.7142857142886,2.5250631265781647
102,2870.7336830404015,1553.8625323735178,2763.1105670127063,983.9285714285743,2.55006375159379
103,2932.293354790952,1586.1206586025655,2797.2072262558618,983.9285714285743,2.5750643766094155
104,2994.618165368406,1618.7597842514515,2831.48746098797,973.14285714286,2.600065001625041
105,3057.712292758389,1651.7818603552878,2865.9532567920446,973.14285714286,2.6250656266406662
106,3121.5799590289334,1685.1888615861535,2900.6066337317393,962.3571428571456,2.6500662516562916
107,3186.225431121646,1718.982786592096,2935.449647161947,962.3571428571456,2.675066876671917
108,3251.653021660842,1753.165658377111,2970.4843885634045,951.5714285714313,2.7000675016875424
109,3317.86708978122,1787.7395247034729,3005.712986402159,951.5714285714313,2.725068126703168
110,3384.8720419746564,1822.7064584717155,3041.137607014768,940.785714285717,2.750068751718793
111,3452.672332956712,1858.0685581378639,3076.7604555201674,940.785714285717,2.7750693767344186
112,3521.272466553472,1893.8279481343925,3112.583776759165,930.0000000000026,2.800070001750044
113,3590.67699660936,1929.9867792986333,3148.6098562625616,930.0000000000026,2.8250706267656693
114,3660.890527916587,1966.5472293123603,3184.8410212489466,919.2142857142883,2.8500712517812947
115,3731.917717166922,2003.5115031525493,3221.2796416532615,919.2142857142883,2.87507187679692
116,3803.76327392649,2040.8818335682154,3257.9281311872633,908.428571428574,2.9000725018125455
117,3876.4319616343387,2078.6604815609753,3294.788948433083,908.428571428574,2.925073126828171
118,3949.928598625535,2116.849736854434,3331.864597971112,897.6428571428596,2.9500737518437963
119,4024.258059179572,2155.451918423176,3369.1576315435123,897.6428571428596,2.9750743768594217
120,4099.425274594922,2194.469374999404,3406.670649254713,886.8571428571453,3.000075001875047
121,4175.435234290565,2233.9044856131077,3444.406300810287,886.8571428571453,3.0250756268906724
122,4252.292986935402,2273.7596601210535,3482.3672867956966,876.0714285714309,3.050076251906298
123,4330.003641606426,2314.037339810282,3520.5563599964466,876.0714285714309,3.075076876921923
124,4408.5723689766455,2354.7399979159236,3558.9763267612598,865.2857142857166,3.1000775019375486
125,4488.004402533719,2395.8701402693987,3597.6300484099547,865.2857142857166,3.125078126953174
126,4568.305039830329,2437.430305875838,3636.5204426877995,854.5000000000023,3.1500787519687994
127,4649.479643767364,2479.423067558557,3675.650485268178,854.5000000000023,3.1750793769844248
128,4731.533643911018,2521.8510325811803,3715.023211305507,843.7142857142879,3.20008000200005
129,4814.4725378449375,2564.7168433479965,3754.6417170404234,843.7142857142879,3.2250806270156755
130,4898.301892558658,2608.023178037256,3794.509161459361,832.9285714285736,3.250081252031301
131,4983.027345873505,2651.772751342505,3834.6287680107403,832.9285714285736,3.2750818770469263
132,5068.654607907318,2695.9683151617646,3875.0038263800857,822.1428571428593,3.3000825020625517
133,5155.1894625793175,2740.612659368664,3915.6376943265227,822.1428571428593,3.325083127078177
134,5242.637769156517,2785.708612538874,3956.5337995831997,811.3571428571449,3.3500837520938025
135,5331.005463843137,2831.259042765945,3997.6956418243217,811.3571428571449,3.375084377109428
136,5420.298561414569,2877.266858443618,4039.1267947016045,800.5714285714306,3.4000850021250533
137,5510.523156897441,2923.7350091151893,4080.8309079531114,800.5714285714306,3.4250856271406787
138,5601.685427297483,2970.6664863042533,4122.8117095875605,789.7857142857163,3.450086252156304
139,5693.791633376849,3018.064324427396,4165.0730081473685,789.7857142857163,3.4750868771719294
140,5786.848121482787,3065.9316016584635,4200.429881889172,780.7976190476211,3.500087502187555
141,5880.2210279572355,3113.9421753548086,4199.98660134746,780.7976190476211,3.52508812720318
142,5973.591825691047,3161.932199899107,4199.5435612970505,780.7976190476211,3.5500887522188056
143,6066.958343044377,3209.900559835136,4198.90522604114,780.7976190476211,3.575089377234431
144,6160.318413043707,3257.8461426422,4198.2674602656,217.0,3.6000900022500564
145,6253.67204540183,3305.768954485655,4197.630263169331,217.0,3.6250906272656818
146,6347.019249814488,3353.6690015010536,4196.99363395292,217.0,3.650091252281307
147,6440.360035960403,3401.5462898314,4196.35757181864,217.0,3.6750918772969325
148,6533.6944135013155,3449.4008255936205,4195.72207597044,217.0,3.700092502312558
149,6627.022392082013,3497.2326148860157,4195.087145613945,217.0,3.7250931273281833
150,6720.343981330361,3545.0416638217866,4194.452779956454,217.0,3.7500937523438087
151,6813.65919085735,3592.8279784694314,4193.818978206931,217.0,3.775094377359434
152,6906.968030257102,3640.5915649086237,4193.185739576008,217.0,3.8000950023750595
153,7000.270509106932,3688.3324291929603,4192.553063275973,217.0,3.825095627390685
154,7093.56663696736,3736.0505773685873,4191.920948520775,217.0,3.8500962524063103
155,7186.856423382155,3783.7460154742002,4191.289394526013,217.0,3.8750968774219356
156,7280.139877878363,3831.418749522418,4190.658400508937,217.0,3.900097502437561
157,7373.417009966338,3879.068785533309,4190.027965688441,217.0,3.9250981274531864
158,7466.687829139781,3926.6961294971406,4189.398089285063,217.0,3.950098752468812
159,7559.95234487576,3974.3007874041796,4188.768770520977,217.0,3.975099377484437
160,7653.210566634761,4021.8827652186155,4188.140008619994,217.0,4.000100002500063
161,7746.462503860698,4069.442068915814,4187.511802807551,217.0,4.025100627515688
162,7839.708165980966,4116.978704430163,4186.8841523107185,217.0,4.050101252531314
163,7932.947562406459,4164.492677707225,4186.257056358185,217.0,4.075101877546939
164,8026.180702531606,4211.983994670212,4185.630514180262,217.0,4.100102502562565
165,8119.407595734406,4259.452661227435,4185.004525008877,217.0,4.12510312757819
166,8212.62825137645,4306.898683287203,4184.379088077568,217.0,4.150103752593815
167,8305.842678802974,4354.322066731751,4183.754202621483,217.0,4.175104377609441
168,8399.050887342863,4401.722817439586,4183.1298678773765,217.0,4.200105002625066
169,8492.252886308706,4449.10094127804,4182.506083083603,217.0,4.2251056276406915
170,8585.448684996807,4496.4564440995455,4181.882847480115,217.0,4.250106252656317
171,8678.638292687237,4543.789331745356,4181.2601603084595,217.0,4.275106877671942
172,8771.821718643856,4591.099610041827,4180.638020811778,217.0,4.300107502687568
173,8864.998972114336,4638.387284815311,4180.016428234793,217.0,4.325108127703193
174,8958.170062330204,4685.652361866087,4179.395381823817,217.0,4.3501087527188185
175,9051.334998506874,4732.894846983254,4178.774880826738,217.0,4.375109377734444
176,9144.49378984367,4780.114745955914,4178.154924493023,217.0,4.400110002750069
177,9237.646445523855,4827.312064558268,4177.535512073711,217.0,4.425110627765695
178,9330.792974714683,4874.486808538437,4176.916642821414,217.0,4.45011125278132
179,9423.9333865674,4921.638983655721,4176.298315990305,217.0,4.475111877796945
180,9517.067690217298,4968.768595635891,4175.680530836123,217.0,4.500112502812571
181,9610.195894783732,5015.875650208443,4175.063286616164,217.0,4.525113127828196
182,9703.318009370161,5062.960153084248,4174.446582589283,217.0,4.550113752843822
183,9796.434043064173,5110.02210997045,4173.830418015885,217.0,4.575114377859447
184,9889.544004937512,5157.061526548117,4173.214792157922,217.0,4.600115002875072
185,9982.64790404612,5204.078408498317,4172.599704278892,217.0,4.625115627890698
186,10075.74574943015,5251.072761494666,4171.985153643838,217.0,4.650116252906323
187,10168.83755011402,5298.04459118098,4171.371139519339,217.0,4.6751168779219485
188,10261.92331510642,5344.993903208524,4170.757661173508,217.0,4.700117502937574
189,10355.00305340036,5391.920703206211,4170.14471787599,217.0,4.725118127953199
190,10448.076773973184,5438.824996795505,4169.532308897959,217.0,4.750118752968825
191,10541.144485786617,5485.706789590418,4168.920433512113,217.0,4.77511937798445
192,10634.206197786783,5532.566087182611,4168.309090992672,217.0,4.8001200030000755
193,10727.261918904236,5579.402895163745,4167.698280615372,217.0,4.825120628015701
194,10820.311658054,5626.217219106853,4167.088001657465,217.0,4.850121253031326
195,10913.355424135583,5673.0090645849705,4166.478253397713,217.0,4.875121878046952
196,11006.39322603303,5719.778437137604,4165.869035116388,217.0,4.900122503062577
197,11099.42507261492,5766.52534231171,4165.260346095263,217.0,4.925123128078202
198,11192.450972734423,5813.249785646796,4164.652185617615,217.0,4.950123753093828
199,11285.470935229325,5859.951772652566,4164.0445529682165,217.0,4.975124378109453
200,11378.484968922046,5906.631308838725,4163.437447433336,217.0,5.000125003125079
201,11471.493082619674,5953.288399711251,4162.830868300733,217.0,5.025125628140704
202,11564.495285114013,5999.923050746322,4162.224814859652,217.0,5.050126253156329
203,11657.491585181579,6046.535267420113,4161.619286400825,217.0,5.075126878171955
204,11750.48199158365,6093.125055205077,4161.014282216464,217.0,5.10012750318758
205,11843.466513066302,6139.692419547588,4160.40980160026,217.0,5.1251281282032055
206,11936.445158360415,6186.237365890294,4159.805843847375,217.0,5.150128753218831
207,12029.417936181722,6232.7598996683955,4159.202408254447,217.0,5.175129378234456
208,12122.384855230835,6279.260026298463,4158.599494119578,217.0,5.200130003250082
209,12215.345924193263,6325.73775119707,4157.997100742336,217.0,5.225130628265707
210,12308.301151739455,6372.193079750985,4157.395227423753,217.0,5.2501312532813325
211,12401.250546524816,6418.626017354429,4156.793873466314,217.0,5.275131878296958
212,12494.19411718974,6465.036569382995,4156.193038173964,217.0,5.300132503312583
213,12587.131872359652,6511.424741201103,4155.592720852098,217.0,5.325133128328209
214,12680.063820645008,6557.790538173169,4154.992920807559,217.0,5.350133753343834
215,12772.989970641363,6604.133965630084,4154.393637348636,217.0,5.375134378359459
216,12865.910330929355,6650.45502891764,4153.794869785059,217.0,5.400135003375085
217,12958.824910074773,6696.753733351827,4153.196617427998,217.0,5.42513562839071
218,13051.73371662856,6743.030084241182,4152.59887959006,217.0,5.450136253406336
