,distance,altitude,velocity,mass,time
0,0.0,0.0,0.0,1534.0,0.0
1,0.9768278682867908,0.5012470744550228,43.96959884269585,1534.0,0.050002500125006254
2,3.9165419066373244,2.0101053565740585,88.26090544742532,1512.4285714285713,0.10000500025001251
3,8.859635927034477,4.484294597059488,132.90705478104692,1512.4285714285713,0.15000750037501875
4,15.843925465665022,7.885921973735094,177.89578617878766,1490.8571428571427,0.20001000050002501
5,24.893714542643963,12.202698100358248,223.227650114683,1490.8571428571427,0.2500125006250313
6,36.031321351733844,17.426592878997326,268.9049202271349,1469.285714285714,0.3000150007500375
7,49.27793239505296,23.552273206412792,314.9307598671638,1469.285714285714,0.3500175008750438
8,64.65404541095812,30.576282858848572,361.30887721180216,1447.7142857142853,0.40002000100005003
9,82.17972989482942,38.496557369828224,408.04335628327647,1447.7142857142853,0.45002250112505626
10,101.87479395264805,47.31211308762431,455.1385487132231,1426.1428571428567,0.5000250012500626
11,123.75889562560788,57.022834867239,502.59894995560273,1426.1428571428567,0.5500275013750688
12,147.85162313530773,67.62932565063238,550.4292422549572,1404.571428571428,0.600030001500075
13,174.17254981967497,79.13279391825199,598.6339899618072,1404.571428571428,0.6500325016250813
14,202.74126536865967,91.5349639095366,647.217598583202,1382.9999999999993,0.7000350017500876
15,233.57740730367823,104.83800925314426,696.1845717575466,1382.9999999999993,0.7500375018750938
16,266.70066410564107,119.04449116438627,745.5384355662537,1361.4285714285706,0.8000400020001001
17,302.13076992524276,134.15730549395084,795.2826433121573,1361.4285714285706,0.8500425021251063
18,339.8875138438673,150.17964559793472,845.4207601405328,1339.857142857142,0.9000450022501125
19,379.990763901666,167.1149785965681,895.9558256903236,1339.857142857142,0.9500475023751188
20,422.46041389373505,184.96699460595846,946.8899624110262,1318.2857142857133,1.000050002500125
21,467.3163978016678,203.7395891994238,998.2248715409409,1318.2857142857133,1.0500525026251313
22,514.5786270353756,223.43681714311242,1049.96146635183,1296.7142857142846,1.1000550027501377
23,564.2670339752847,244.06289362162352,1102.1028465031864,1296.7142857142846,1.1500575028751439
24,616.401981533912,265.62234899029136,1154.6685339800606,1275.142857142856,1.20006000300015
25,671.005261603699,288.12042623385787,1207.7045447831335,1275.142857142856,1.2500625031251564
26,728.1003289903871,311.56316086649895,1261.219541826109,1253.5714285714273,1.3000650032501626
27,787.7099840020996,335.95641458407044,1315.1970231842147,1253.5714285714273,1.3500675033751688
28,849.8567927589323,361.30604134872556,1369.6407282678088,1231.9999999999986,1.4000700035001752
29,914.5635549710491,387.618071988225,1424.5580147997607,1231.9999999999986,1.4500725036251814
30,981.8534074351691,414.8987490981817,1479.9562576667306,1210.42857142857,1.5000750037501875
31,1051.7497927718705,443.1545076183975,1535.8429854866738,1210.42857142857,1.550077503875194
32,1124.2765117842844,472.39198999479413,1592.2268978052803,1188.8571428571413,1.6000800040002001
33,1199.4577602581378,502.61805544793606,1649.1170600032879,1188.8571428571413,1.6500825041252063
34,1277.318132962834,533.8397764265537,1706.5225142250115,1167.2857142857126,1.7000850042502127
35,1357.882636092574,566.0644388869405,1764.452679391281,1167.2857142857126,1.7500875043752189
36,1441.1767042954536,599.2995448112488,1822.9171896231633,1145.714285714284,1.800090004500225
37,1527.226187632844,633.5528030209243,1881.9249427521556,1145.714285714284,1.8500925046252314
38,1616.0573541218569,668.8321265615523,1941.485836609993,1124.1428571428553,1.9000950047502376
39,1707.6969357274504,705.1456476300955,2001.610343656437,1124.1428571428553,1.9500975048752438
40,1802.1721460371944,742.501721419394,2062.309112671118,1102.5714285714266,2.00010000500025
41,1899.5106737642031,780.9089205525815,2123.5925067062167,1102.5714285714266,2.0501025051252566
42,1999.7407011922849,820.3760396540165,2185.471857181668,1080.999999999998,2.1001050052502626
43,2102.890940197745,860.9121069423854,2247.958932844629,1080.999999999998,2.150107505375269
44,2208.990641835139,902.5263855196536,2311.065288644309,1059.4285714285693,2.2001100055002754
45,2318.069583011212,945.2283658832312,2374.802687005273,1059.4285714285693,2.2501125056252813
46,2430.1581090061286,989.027780406177,2439.1839255447485,1037.8571428571406,2.3001150057502877
47,2545.2871648899477,1033.9346135519445,2504.22224389598,1037.8571428571406,2.350117505875294
48,2663.4883168205897,1079.9591082073748,2569.931334677684,1016.2857142857121,2.4001200060003
49,2784.7937742681797,1127.1117724329233,2636.3253645787972,1016.2857142857121,2.4501225061253065
50,2909.236413225365,1175.4033866636455,2703.4189698624286,994.7142857142835,2.500125006250313
51,3036.849762218696,1224.8449965529144,2771.2250639481726,994.7142857142835,2.550127506375319
52,3167.667926706228,1275.4478821083903,2839.756968891049,973.142857142855,2.600130006500325
53,3301.725699111908,1327.2235988415778,2909.030381590916,973.142857142855,2.6501325066253316
54,3439.0586130107,1380.1839972250164,2979.0615479343874,951.5714285714264,2.7001350067503376
55,3579.702969820209,1434.3412314914167,3049.8672889976183,951.5714285714264,2.750137506875344
56,3723.695866738933,1489.7077689804137,3121.4650288390194,929.9999999999978,2.8001400070003504
57,3871.0752260098698,1546.29639999941,3193.872823998044,929.9999999999978,2.8501425071253563
58,4021.8798255937863,1604.120248220861,3267.109394826329,908.4285714285693,2.9001450072503627
59,4176.1493313424935,1663.192781727761,3341.194158788538,908.4285714285693,2.950147507375369
60,4333.924330769116,1723.5278246365488,3416.1472658825064,886.8571428571407,3.000150007500375
61,4495.246368519555,1785.139569401741,3491.9896363417683,886.8571428571407,3.0501525076253815
62,4660.157983657269,1848.0425898320973,3568.74300079839,865.2857142857122,3.100155007750388
63,4828.702748882164,1912.2518547922373,3646.4299431005115,865.2857142857122,3.150157507875394
64,5000.925311813798,1977.7827427573502,3725.0739459971487,843.7142857142836,3.2001600080004002
65,5176.871438479551,2044.651057165116,3804.6994399229834,843.7142857142836,3.2501625081254066
66,5356.588059159747,2112.8730426579714,3885.3318551382163,822.1428571428551,3.3001650082504126
67,5540.123316754211,2182.4654022976756,3966.997677503399,822.1428571428551,3.350167508375419
68,5727.526617848488,2253.4453157410026,4049.7245081967894,800.5714285714265,3.4001700085004254
69,5918.848686672993,2325.830458559096,4133.541127712581,800.5714285714265,3.4501725086254313
70,6114.141622165096,2399.63902265206,4204.105810720609,782.595238095236,3.5001750087504377
71,6310.76124639091,2473.870947919786,4203.383561061605,782.595238095236,3.550177508875444
72,6507.372269117369,2548.021588101983,4202.66221920425,782.595238095236,3.60018000900045
73,6703.965377815016,2622.0874367170036,4201.543060792563,782.595238095236,3.6501825091254565
74,6900.531291460282,2696.065003771335,4200.425864412739,217.0,3.700185009250463
75,7097.070075550305,2769.954323515296,4199.3106255078865,217.0,3.750187509375469
76,7293.581795373988,2843.7554300762713,4198.197339538643,217.0,3.8001900095004753
77,7490.066516012738,2917.468357440084,4197.086001983108,217.0,3.8501925096254817
78,7686.524302341196,2991.0931394919753,4195.976608336762,217.0,3.9001950097504876
79,7882.955219027975,3064.6298099681735,4194.869154112402,217.0,3.950197509875494
80,8079.359330536378,3138.0784025005996,4193.76363484006,217.0,4.0002000100005
81,8275.736701125137,3211.438950587064,4192.660046066939,217.0,4.050202510125507
82,8472.087394849123,3284.711487606168,4191.558383357332,217.0,4.100205010250513
83,8668.41147556008,3357.896046809852,4190.458642292557,217.0,4.150207510375519
84,8864.709006907322,3430.992661330849,4189.360818470882,217.0,4.200210010500525
85,9060.980052338464,3504.001364182681,4188.264907507458,217.0,4.2502125106255315
86,9257.224675100126,3576.922188255936,4187.170905034242,217.0,4.300215010750538
87,9453.442938238646,3649.7551663145423,4186.078806699931,217.0,4.350217510875544
88,9649.634904600773,3722.5003310143948,4184.988608169892,217.0,4.400220011000551
89,9845.80063683438,3795.157714881003,4183.900305126089,217.0,4.450222511125556
90,10041.940197389162,3867.7273503243923,4182.813893267015,217.0,4.500225011250563
91,10238.053648517332,3940.2092696391046,4181.729368307625,217.0,4.550227511375569
92,10434.141052274315,4012.6035049930215,4180.646725979265,217.0,4.600230011500575
93,10630.202470519424,4084.910088453442,4179.565962029603,217.0,4.650232511625582
94,10826.237964916585,4157.129051942378,4178.487072222561,217.0,4.700235011750588
95,11022.247596934982,4229.260427296162,4177.41005233825,217.0,4.750237511875594
96,11218.231427849762,4301.304246213287,4176.334898172899,217.0,4.8002400120006
97,11414.189518742709,4373.260540276766,4175.261605538787,217.0,4.8502425121256065
98,11610.12193050293,4445.129340969026,4174.190170264182,217.0,4.900245012250613
99,11806.028723827503,4516.910679649562,4173.1205881932665,217.0,4.950247512375619
100,12001.909959222186,4588.604587558657,4172.052855186076,217.0,5.000250012500626
101,12197.765697002054,4660.211095821112,4170.986967118433,217.0,5.050252512625631
102,12393.595997292185,4731.730235464871,4169.922919881879,217.0,5.100255012750638
103,12589.400920028309,4803.16203738749,4168.860709383612,217.0,5.150257512875644
104,12785.180524957488,4874.506532374769,4167.800331546415,217.0,5.20026001300065
105,12980.934871638749,4945.763751111925,4166.741782308602,217.0,5.250262513125657
106,13176.664019443764,5016.9337241612375,4165.685057623942,217.0,5.300265013250663
107,13372.368027557482,5088.016481980681,4164.630153461605,217.0,5.350267513375669
108,13568.046954978803,5159.012054912746,4163.577065806087,217.0,5.400270013500675
109,13763.700860521198,5229.920473188162,4162.525790657158,217.0,5.4502725136256815
110,13959.329802813376,5300.741766933352,4161.47632402979,217.0,5.500275013750688
111,14154.933840299918,5371.47596616298,4160.428661954097,217.0,5.550277513875694
112,14350.513031241915,5442.123100776225,4159.382800475274,217.0,5.600280014000701
113,14546.067433717611,5512.683200571686,4158.33873565353,217.0,5.650282514125706
114,14741.59710562303,5583.1562952362,4157.296463564032,217.0,5.700285014250713
115,14937.102104672626,5653.542414344847,4156.255980296837,217.0,5.750287514375719
116,15132.582488399876,5723.8415873833,4155.217281956834,217.0,5.8002900145007255
117,15328.038314157955,5794.05384369567,4154.180364663682,217.0,5.850292514625732
118,15523.469639120323,5864.179212555289,4153.145224551746,217.0,5.900295014750738
119,15718.876520281367,5934.217723108828,4152.111857770041,217.0,5.950297514875744
120,15914.259014457011,6004.169404402375,4151.080260482169,217.0,6.00030001500075
121,16109.617178285338,6074.034285377711,4150.05042886626,217.0,6.050302515125757
122,16304.951068227214,6143.812394861132,4149.022359114907,217.0,6.100305015250763
123,16500.260740566868,6213.503761596978,4147.996047435115,217.0,6.150307515375769
124,16695.54625141255,6283.1084142029285,4146.971490048234,217.0,6.200310015500776
125,16890.80765669709,6352.626381203532,4145.948683189903,217.0,6.250312515625781
126,17086.045012178543,6422.057691015303,4144.927623109991,217.0,6.300315015750788
127,17281.258373440767,6491.402371961623,4143.90830607254,217.0,6.350317515875794
128,17476.44779589403,6560.660452250391,4142.8907283557,217.0,6.4003200160008005
129,17671.613334775604,6629.831960000098,4141.874886251681,217.0,6.450322516125807
130,17866.75504515038,6698.916923210025,4140.860776066686,217.0,6.500325016250813
131,18061.87298191144,6767.915369793773,4139.848394120861,217.0,6.55032751637582
132,18256.96719978065,6836.827327560633,4138.837736748228,217.0,6.600330016500825
133,18452.03775330925,6905.652824215591,4137.828800296641,217.0,6.650332516625832
134,18647.084696878454,6974.391887366772,4136.821581127716,217.0,6.700335016750838
135,18842.10808470001,7043.0445445254445,4135.816075616784,217.0,6.750337516875844
136,19037.10797081681,7111.610823087394,4134.81228015283,217.0,6.800340017000851
137,19232.084409103438,7180.0907503739,4133.810191138439,217.0,6.850342517125857
138,19427.03745326677,7248.484353587031,4132.809804989738,217.0,6.900345017250863
139,19621.967156846546,7316.791659839451,4131.811118136343,217.0,6.950347517375869
140,19816.873573215922,7385.012696146965,4130.814127021302,217.0,7.0003500175008755
141,20011.756755582075,7453.14748942107,4129.818828101041,217.0,7.050352517625882
142,20206.61675698674,7521.196066491306,4128.825217845308,217.0,7.100355017750888
143,20401.45363030678,7589.158454075456,4127.833292737118,217.0,7.150357517875895
144,20596.267428254778,7657.034678798169,4126.843049272704,217.0,7.2003600180009
145,20791.058203379554,7724.824767187238,4125.854483961454,217.0,7.250362518125907
146,20985.826914507143,7792.528745681047,4124.867593325865,217.0,7.300365018250913
147,21180.571825571926,7860.146640621126,4123.882373901485,217.0,7.350367518375919
148,21375.293870973444,7927.678478255868,4122.898822236861,217.0,7.400370018500926
149,21569.993101166005,7995.124284721911,4121.9169348934865,217.0,7.450372518625932
150,21764.66957141136,8062.484086085111,4120.936708445748,217.0,7.500375018750938
151,21959.32332610715,8129.7579083144665,4119.958139480872,217.0,7.550377518875944
152,22153.954427722056,8196.945777263492,4118.981224598872,217.0,7.6003800190009505
153,22348.56291912002,8264.047718714923,4118.005960412501,217.0,7.650382519125957
154,22543.148858826768,8331.063758354634,4117.032343547191,217.0,7.700385019250963
155,22737.71228836771,8397.99392177537,4116.060370641009,217.0,7.75038751937597
156,22932.25326471068,8464.83823447302,4115.090038344602,217.0,7.800390019500975
157,23126.77183025956,8531.596721861511,4114.121343321147,217.0,7.850392519625982
158,23321.26804673359,8598.269409250468,4113.154282246299,217.0,7.900395019750988
159,23515.74196137279,8664.85632186383,4112.188851808139,217.0,7.950397519875994
160,23710.193623895146,8731.357484839857,4111.225048707128,217.0,8.000400020001
161,23904.62307828136,8797.7729232274,4110.2628696560505,217.0,8.050402520126006
162,24099.030381117907,8864.102661982179,4109.302311379972,217.0,8.100405020251014
163,24293.415581130615,8930.346725963056,4108.343370616179,217.0,8.15040752037602
164,24487.77872939915,8996.505139954388,4107.386044114139,217.0,8.200410020501026
165,24682.11986551111,9062.577928639948,4106.430328635444,217.0,8.250412520626032
166,24876.439049202727,9128.565116621554,4105.476220953769,217.0,8.300415020751037
167,25070.736330563137,9194.46672840789,4104.523717854813,217.0,8.350417520876045
168,25265.0117523253,9260.282788425684,4103.572816136258,217.0,8.40042002100105
169,25459.26535967122,9326.013321012259,4102.623512607715,217.0,8.450422521126058
170,25653.497211482074,9391.658350415528,4101.675804090683,217.0,8.500425021251063
171,25847.70735168083,9457.21790080145,4100.729687418492,217.0,8.550427521376069
172,26041.895830274818,9522.691996242851,4099.785159436262,217.0,8.600430021501076
173,26236.062690191906,9588.0806607306,4098.842217000851,217.0,8.650432521626081
174,26430.207982219785,9653.383918173611,4097.9008569808075,217.0,8.700435021751089
175,26624.331757433847,9718.601792383939,4096.961076256326,217.0,8.750437521876094
176,26818.434061762324,9783.734307102859,4096.0228717192,217.0,8.800440022001101
177,27012.514937966866,9848.781485978514,4095.0862402727707,217.0,8.850442522126107
178,27206.574445363352,9913.74335257709,4094.151178831885,217.0,8.900445022251112
179,27400.612618528932,9978.619930379093,4093.217684322845,217.0,8.95044752237612
180,27594.62951035051,10043.41124278307,4092.285753683365,217.0,9.000450022501125
181,27788.625166953643,10108.117313098162,4091.355383862524,217.0,9.050452522626133
182,27982.59963486954,10172.738164562732,4090.42657182072,217.0,9.100455022751138
183,28176.55296274259,10237.273820325732,4089.499314529622,217.0,9.150457522876144
184,28370.48519613035,10301.72430344671,4088.57360897213,217.0,9.20046002300115
185,28564.39637930648,10366.089636914432,4087.649452142324,217.0,9.250462523126156
186,28758.286562049612,10430.369843628258,4086.7268410454217,217.0,9.300465023251164
187,28952.155789409208,10494.564946416765,4085.805772697733,217.0,9.35046752337617
188,29146.004105190943,10558.674968007952,4084.886244126615,217.0,9.400470023501176
189,29339.83155695681,10622.699931066483,4083.9682523704278,217.0,9.450472523626182
190,29533.638189333982,10686.63985817507,4083.0517944784906,217.0,9.500475023751187
191,29727.424053898867,10750.494771823287,4082.1368675110357,217.0,9.550477523876195
192,29921.189186261494,10814.264694437385,4081.223468539167,217.0,9.6004800240012
193,30114.93363717615,10877.949648350477,4080.3115946448142,217.0,9.650482524126208
194,30308.657454457003,10941.549655821174,4079.4012429206923,217.0,9.700485024251213
195,30502.36067830209,11005.06473903358,4078.492410470252,217.0,9.75048752437622
196,30696.043355752718,11068.49492008984,4077.5850944076437,217.0,9.800490024501226
197,30889.705529489474,11131.840221010149,4076.67929185767,217.0,9.850492524626231
198,31083.347247329468,11195.100663740188,4075.7749999557445,217.0,9.900495024751239
199,31276.96855276449,11258.276270151138,4074.872215847848,217.0,9.950497524876244
200,31470.56948663532,11321.367062028497,4073.9709366904867,217.0,10.000500025001251
201,31664.150099465576,11384.373061083257,4073.0711596506508,217.0,10.050502525126257
202,31857.710429856197,11447.29428896308,4072.1728819057707,217.0,10.100505025251262
203,32051.250526028674,11510.130767215043,4071.2761006436763,217.0,10.15050752537627
204,32244.77042748876,11572.882517322898,4070.3808130625544,217.0,10.200510025501275
205,32438.270180236854,11635.549560703337,4069.487016370908,217.0,10.250512525626283
206,32631.749829145,11698.131918676198,4068.5947077875144,217.0,10.300515025751288
207,32825.209415035584,11760.629612509161,4067.703884541383,217.0,10.350517525876295
208,33018.648980675214,11823.042663376778,4066.814543871717,217.0,10.4005200260013
209,33212.068575098885,11885.371092386544,4065.92668302787,217.0,10.450522526126306
210,33405.4682345563,11947.614920563996,4065.040299269305,217.0,10.500525026251314
211,33598.84800597407,12009.774168875068,4064.155389865556,217.0,10.55052752637632
212,33792.20792655889,12071.848858203739,4063.2719520961878,217.0,10.600530026501326
213,33985.54804547849,12133.839009352028,4062.3899832507527,217.0,10.650532526626332
214,34178.86840365932,12195.744643062353,4061.5094806287534,217.0,10.700535026751337
215,34372.16904107303,12257.565779995173,4060.6304415396016,217.0,10.750537526876345
216,34565.450002375495,12319.302440743893,4059.752863302579,217.0,10.80054002700135
217,34758.71132561507,12380.954645823687,4058.876743246799,217.0,10.850542527126358
218,34951.953060452994,12442.522415678948,4058.002078711164,217.0,10.900545027251363
219,35145.17524162688,12504.005770683289,4057.128867044331,217.0,10.95054752737637
220,35338.37791131613,12565.404731150717,4056.257105604667,217.0,11.000550027501376
221,35531.56111621005,12626.719317294657,4055.3867917602147,217.0,11.050552527626381
222,35724.724893811384,12687.949549280107,4054.5179228886523,217.0,11.100555027751389
223,35917.86928753557,12749.095447201282,4053.650496377255,217.0,11.150557527876394
224,36110.99433715208,12810.157031066716,4052.784509622856,217.0,11.200560028001401
225,36304.10008021742,12871.134320836514,4051.9199600318084,217.0,11.250562528126407
226,36497.18656675019,12932.02733637765,4051.0568450199494,217.0,11.300565028251413
227,36690.25382718116,12992.836097497493,4050.1951620125583,217.0,11.35056752837642
228,36883.30191362619,13053.560623943806,4049.3349084443234,217.0,11.400570028501425
229,37076.33085485007,13114.20093537867,4048.476081759301,217.0,11.450572528626433
230,37269.340699811786,13174.757051397115,4047.6186794108803,217.0,11.500575028751438
