,distance,altitude,velocity,mass,time
0,0.0,0.0,0.0,1534.0,0.0
1,0.2547758807070077,0.10337915644049644,22.00916714258779,1534.0,0.025000625015625392
2,1.0203024948628825,0.41405048221349716,44.09717309190509,1523.2142857142858,0.050001250031250784
3,2.298387564447791,0.9328189194202423,66.26456170951788,1523.2142857142858,0.07500187504687618
4,4.090851255409474,1.6604950278997421,88.5118819087264,1512.4285714285716,0.10000250006250157
5,6.402110818798778,2.591804038733244,110.85200327908015,1512.4285714285716,0.12500312507812697
6,9.240066171541581,3.7131764627993107,133.28030578837647,1501.6428571428573,0.15000375009375236
7,12.607902299954112,5.022094178944826,155.79448922978622,1501.6428571428573,0.17500437510937775
8,16.508606706385347,6.51652754843235,178.39452260292617,1490.8571428571431,0.20000500012500314
9,20.94503014943505,8.19480288028717,201.08052994011192,1490.8571428571431,0.22500562514062852
10,25.91992396173332,10.055518832057714,223.85274035714448,1480.071428571429,0.25000625015625394
11,31.435965224926157,12.097489435225725,246.71145821357288,1480.071428571429,0.27500687517187933
12,37.49577455800002,14.319703534245491,269.65704417800634,1469.2857142857147,0.3000075001875047
13,44.10192915572257,16.721294846385717,292.68990263396665,1469.2857142857147,0.3250081252031301
14,51.256972635271474,19.30151928588748,315.8104729808377,1458.5000000000005,0.3500087502187555
15,58.963422659805644,22.05973731726408,339.0192234368756,1458.5000000000005,0.3750093752343809
16,67.22377696695153,24.995399985462427,362.31664651005445,1447.7142857142862,0.40001000025000627
17,76.04051822368758,28.108037691563368,385.703255615933,1447.7142857142862,0.42501062526563166
18,85.41611799899364,31.39725097641349,409.17958250573963,1436.928571428572,0.45001125028125705
19,95.35304006085993,34.86270294338465,432.7461743931214,1436.928571428572,0.47501187529688244
20,105.85374295896773,38.50411282107234,456.4035770867229,1426.1428571428578,0.5000125003125079
21,116.92068214461285,42.32125051692128,480.1523538800173,1426.1428571428578,0.5250131253281333
22,128.55631221917636,46.31393211707473,503.99308728266874,1415.3571428571436,0.5500137503437587
23,140.76308872694705,50.48201597109437,527.9263673483799,1415.3571428571436,0.575014375359384
24,153.5434691115298,54.82539910450578,551.9527554427367,1404.5714285714294,0.6000150003750094
25,166.89991377992737,59.3440141454339,576.0728328996394,1404.5714285714294,0.6250156253906348
26,180.8348862831339,64.03782643005252,600.2871066516645,1393.7857142857151,0.6500162504062602
27,195.35085411008353,68.90683160722256,624.5961480236293,1393.7857142857151,0.6750168754218856
28,210.4502898625787,73.95105371251702,649.0005036735963,1383.000000000001,0.700017500437511
29,226.13567220100012,79.17054341733456,673.5007663491833,1383.000000000001,0.7250181254531364
30,242.40948587903378,84.56537617370486,698.097374282243,1372.2142857142867,0.7500187504687618
31,259.27421764149403,90.13564921170473,722.790695274874,1372.2142857142867,0.7750193754843872
32,276.73235965403154,95.8814811706543,747.5812623818327,1361.4285714285725,0.8000200005000125
33,294.786409221325,101.80301068350673,772.4694048001461,1361.4285714285725,0.8250206255156379
34,313.43886617624514,107.90039428696036,797.4555166831217,1350.6428571428582,0.8500212505312633
35,332.692237016021,114.17380667477846,822.5401236814879,1350.6428571428582,0.8750218755468887
36,352.549036053229,120.623440079391,847.7237256941482,1339.857142857144,0.9000225005625141
37,373.01178400457883,127.24950286000967,873.0066309955416,1339.857142857144,0.9250231255781395
38,394.0829991653316,134.05221581831574,898.3887901948549,1329.0714285714298,0.9500237505937649
39,415.7652017631599,141.03181286528707,923.8707208163572,1329.0714285714298,0.9750243756093903
40,438.0609207176161,148.1885424517095,949.4528381062154,1318.2857142857156,1.0000250006250158
41,460.97268612224474,155.5226645320654,975.1350484177339,1318.2857142857156,1.0250256256406411
42,484.5030217789572,163.03444757312536,1000.9173674012777,1307.5000000000014,1.0500262506562665
43,508.6544530415946,170.7241705134511,1026.8000558843485,1307.5000000000014,1.075026875671892
44,533.4295084899181,178.59212277829647,1052.7833559341257,1296.7142857142871,1.1000275006875173
45,558.8307196186252,186.63860373571515,1078.8674900838305,1296.7142857142871,1.1250281257031427
46,584.8606351820462,194.8639267385006,1105.0545648179595,1285.928571428573,1.150028750718768
47,611.5218765787772,203.26843620464206,1131.3477825368727,1285.928571428573,1.1750293757343935
48,638.8171275928427,211.8525038138032,1157.7502226614008,1275.1428571428587,1.2000300007500189
49,666.7492206671244,220.61655511707067,1184.272013607484,1275.1428571428587,1.2250306257656443
50,695.3212340506489,229.56109937280416,1210.9198350254014,1264.3571428571445,1.2500312507812696
51,724.5361832051219,238.68663229048252,1237.6849169079162,1264.3571428571445,1.275031875796895
52,754.3969611385244,247.99361717700958,1264.5659345553588,1253.5714285714303,1.3000325008125204
53,784.9064302301193,257.48251358419657,1291.5621464679323,1253.5714285714303,1.3250331258281458
54,816.0674614903264,267.15378930047154,1318.6745018777438,1242.785714285716,1.3500337508437712
55,847.8829365304102,277.00792072713375,1345.9031357497538,1242.785714285716,1.3750343758593966
56,880.3557471576423,287.045392524451,1373.2490350085798,1232.0000000000018,1.400035000875022
57,913.4888116248662,297.2667023986578,1400.7133857636438,1232.0000000000018,1.4250356258906474
58,947.2850732089281,307.6723604351282,1428.2971994210584,1221.2142857142876,1.4500362509062728
59,981.7474938343094,318.2628869190812,1456.0011455190072,1221.2142857142876,1.4750368759218981
60,1016.8790524820649,329.0388116315007,1483.826158545009,1210.4285714285734,1.5000375009375235
61,1052.6827511361585,340.00067549571395,1511.773277675023,1210.4285714285734,1.525038125953149
62,1089.1616156934645,351.1490306779742,1539.843558067702,1199.6428571428592,1.5500387509687743
63,1126.3186964570377,362.48444053530693,1568.0380942494085,1199.6428571428592,1.5750393759843997
64,1164.1570708510276,374.00748029351234,1596.358111419665,1188.857142857145,1.600040001000025
65,1202.6798423662078,385.718736551702,1624.804655845849,1188.857142857145,1.6250406260156505
66,1241.8901393710787,397.6188067533076,1653.378852138551,1178.0714285714307,1.6500412510312759
67,1281.7911165816272,409.70829951018095,1682.081848368935,1178.0714285714307,1.6750418760469012
68,1322.3859555380889,421.9878345653415,1710.9148110050378,1167.2857142857165,1.7000425010625266
69,1363.6778650891645,434.45804284512997,1739.8789253000587,1167.2857142857165,1.725043126078152
70,1405.6700818840761,447.1195664331317,1768.9753956917539,1156.5000000000023,1.7500437510937774
71,1448.3658708728244,459.9730586260557,1798.205446213243,1156.5000000000023,1.7750443761094028
72,1491.7685246145118,473.019183576107,1827.5701646841928,1145.714285714288,1.8000450011250282
73,1535.8813593026164,486.25861501693726,1857.070598794335,1145.714285714288,1.8250456261406536
74,1580.7077184856141,499.6920372247696,1886.70800000849,1134.9285714285738,1.850046251156279
75,1626.2509753834738,513.3201456479728,1916.4836444601567,1134.9285714285738,1.8750468761719044
76,1672.5145334021456,527.1436469480395,1946.3988287469415,1124.1428571428596,1.9000475011875297
77,1719.5018266574052,541.1632590219378,1976.4548703698638,1124.1428571428596,1.9250481262031551
78,1767.2163205083946,555.3797111138701,2006.6531081850062,1113.3571428571454,1.9500487512187805
79,1815.6615121012283,569.7937438376248,2036.9948877604359,1113.3571428571454,1.975049376234406
80,1864.8409284789097,584.4061085470021,2067.4814061904103,1102.5714285714312,2.0000500012500315
81,1914.7581261835578,599.2175671309233,2098.114007071089,1102.5714285714312,2.025050626265657
82,1965.4166945561485,614.228892903775,2128.8941004766343,1091.785714285717,2.0500512512812823
83,2016.8202565408908,629.4408707544208,2159.8231194637824,1091.785714285717,2.0750518762969077
84,2068.9724692643927,644.8542972579598,2190.9025205769112,1081.0000000000027,2.100052501312533
85,2121.8770246264735,660.4699807465076,2222.1337843673873,1081.0000000000027,2.1250531263281585
86,2175.5376499029912,676.2887414246798,2253.5184111434687,1070.2142857142885,2.150053751343784
87,2229.9581066134274,692.3114109635353,2285.057749793541,1070.2142857142885,2.1750543763594092
88,2285.1421877894204,708.5388316214085,2316.753202734997,1059.4285714285743,2.2000550013750346
89,2341.0937221544928,724.9718574099243,2348.606328529727,1059.4285714285743,2.22505562639066
90,2397.8165757701877,741.6113545149565,2380.618711563067,1048.64285714286,2.2500562514062854
91,2455.3146526803334,758.4582013972104,2412.791962623054,1048.64285714286,2.275056876421911
92,2513.5918955689776,775.5132889561355,2445.1277194962518,1037.8571428571458,2.300057501437536
93,2572.6522864324083,792.7775206305087,2477.6276475807003,1037.8571428571458,2.3250581264531616
94,2632.4998472657094,810.2518125660717,2510.29344051657,1027.0714285714316,2.350058751468787
95,2693.138640764314,827.9370937272906,2543.1268208351175,1027.0714285714316,2.3750593764844123
96,2754.572771041007,845.8343060798943,2576.1295406265654,1016.2857142857173,2.4000600015000377
97,2816.8063843588743,863.9444047212601,2609.3033822275643,1016.2857142857173,2.425060626515663
98,2879.8436698806904,882.2683580629528,2642.6501589289064,1005.500000000003,2.4500612515312885
99,2943.6888604352635,900.8071479871869,2676.171715704204,1005.500000000003,2.475061876546914
100,3008.346233301259,919.5617700107396,2709.869883020209,994.7142857142886,2.5000625015625393
101,3073.820102204057,938.5332309342921,2743.7458439946845,994.7142857142886,2.5250631265781647
102,3140.1148114476964,957.7225470878184,2777.801191416531,983.9285714285743,2.55006375159379
103,3207.234748634698,977.1307479515672,2812.037832332442,983.9285714285743,2.5750643766094155
104,3275.184347359653,996.7588769383729,2846.457706400797,973.14285714286,2.600065001625041
105,3343.968088014033,1016.6079915203154,2881.062786649174,973.14285714286,2.6250656266406662
106,3413.5904986092505,1036.6791634559631,2915.8550802541786,962.3571428571456,2.6500662516562916
107,3484.056155618561,1056.9734789766371,2950.836629344386,962.3571428571456,2.675066876671917
108,3555.369684838355,1077.492038976401,2986.009511827203,951.5714285714313,2.7000675016875424
109,3627.535762269461,1098.2359592430294,3021.3758422405117,951.5714285714313,2.725068126703168
110,3700.5591150190585,1119.2063706554472,3056.9377726299745,940.785714285717,2.750068751718793
111,3774.4445222238546,1140.4044194109738,3092.697493452938,940.785714285717,2.7750693767344186
112,3849.1968159951816,1161.8312672451138,3128.657234509893,930.0000000000026,2.800070001750044
113,3924.8208823866894,1183.4880916848779,3164.8192659045,930.0000000000026,2.8250706267656693
114,4001.321662385371,1205.3760862611234,3201.185899033237,919.2142857142883,2.8500712517812947
115,4078.7041529266185,1227.4964607842267,3237.7594876057624,919.2142857142883,2.87507187679692
116,4156.973407934102,1249.8504415936768,3274.5424286971297,908.428571428574,2.9000725018125455
117,4236.134539385255,1272.4392718113959,3311.5371638330703,908.428571428574,2.925073126828171
118,4316.192718403167,1295.264211613685,3348.746180109566,897.6428571428596,2.9500737518437963
119,4397.15317637576,1318.326538529247,3386.1720113480415,897.6428571428596,2.9750743768594217
120,4479.021206103112,1341.627547699958,3423.817239287513,886.8571428571453,3.000075001875047
121,4561.802162973838,1365.168552197516,3461.6844948151384,886.8571428571453,3.0250756268906724
122,4645.501466171512,1388.9508833140135,3499.77645923664,876.0714285714309,3.050076251906298
123,4730.124599912067,1412.9758908823133,3538.095865588168,876.0714285714309,3.075076876921923
124,4815.677114713228,1437.2449435926974,3576.6454999912235,865.2857142857166,3.1000775019375486
125,4902.16462869705,1461.7594293281436,3615.4282030523423,865.2857142857166,3.125078126953174
126,4989.592828926633,1486.5207555107772,3654.4468713093347,854.5000000000023,3.1500787519687994
127,5077.9674727782,1511.5303494371474,3693.7044587259247,854.5000000000023,3.1750793769844248
128,5167.294389349712,1536.7896586544812,3733.203978236756,843.7142857142879,3.20008000200005
129,5257.579480907265,1562.3001513294876,3772.9485033448095,843.7142857142879,3.2250806270156755
130,5348.828724370574,1588.0633166208863,3812.941169773365,832.9285714285736,3.250081252031301
131,5441.048172838881,1614.08066508919,3853.185177174762,832.9285714285736,3.2750818770469263
132,5534.243957158706,1640.353729084134,3893.683790898313,822.1428571428593,3.3000825020625517
133,5628.422287534853,1666.8840631879866,3934.4403438198306,822.1428571428593,3.325083127078177
134,5723.58945518628,1693.6732446029782,3975.458238235369,811.3571428571449,3.3500837520938025
135,5819.75183404831,1720.7228736504912,4016.740947821889,811.3571428571449,3.375084377109428
136,5916.915882522932,1748.0345741808414,4058.2920196677037,800.5714285714306,3.4000850021250533
137,6015.088145278855,1775.6099940612912,4100.115076375702,800.5714285714306,3.4250856271406787
138,6114.275255103128,1803.450805656612,4142.213818242494,789.7857142857163,3.450086252156304
139,6214.483934806214,1831.558706331998,4184.592025516782,789.7857142857163,3.4750868771719294
140,6315.720999182444,1859.935418959707,4220.070101623459,780.7976190476211,3.500087502187555
141,6417.300550265199,1888.388595879078,4219.774250849115,780.7976190476211,3.52508812720318
142,6518.87792517813,1916.821629486978,4219.478613710429,780.7976190476211,3.5500887522188056
143,6620.4506649733685,1945.233832217753,4218.978780953234,780.7976190476211,3.575089377234431
144,6722.016313983996,1973.62451800704,4218.479374982051,217.0,3.6000900022500564
145,6823.574879029972,2001.9936900027096,4217.980395367658,217.0,3.6250906272656818
146,6925.126366920974,2030.3413513377309,4217.481841681582,217.0,3.650091252281307
147,7026.670784456406,2058.667505133897,4216.983713496102,217.0,3.6750918772969325
148,7128.20813842541,2086.972154520452,4216.486010384241,217.0,3.700092502312558
149,7229.738435606894,2115.2553026117384,4215.988731919769,217.0,3.7250931273281833
150,7331.261682769541,2143.5169525258243,4215.491877677199,217.0,3.7500937523438087
151,7432.777886671829,2171.7571073696017,4214.995447231791,217.0,3.775094377359434
152,7534.287054062043,2199.975770238787,4214.499440159544,217.0,3.8000950023750595
153,7635.789191678296,2228.1729442365468,4214.003856037196,217.0,3.825095627390685
154,7737.284306248544,2256.348632454872,4213.508694442224,217.0,3.8500962524063103
155,7838.772404490598,2284.502837974578,4213.013954952842,217.0,3.8750968774219356
156,7940.253493112145,2312.6355638876557,4212.519637148001,217.0,3.900097502437561
157,8041.727578810768,2340.7468132674694,4212.025740607382,217.0,3.9250981274531864
158,8143.194668273953,2368.836589176208,4211.532264911404,217.0,3.950098752468812
159,8244.654768179109,2396.9048946872354,4211.039209641213,217.0,3.975099377484437
160,8346.107885193587,2424.9517328701913,4210.546574378686,217.0,4.000100002500063
161,8447.554025974694,2452.9771067649126,4210.054358706428,217.0,4.025100627515688
162,8548.993197169702,2480.981019437313,4209.56256220777,217.0,4.050101252531314
163,8650.425405415885,2508.963473919779,4209.071184466769,217.0,4.075101877546939
164,8751.850657340508,2536.9244732633233,4208.580225068206,217.0,4.100102502562565
165,8853.268959560859,2564.864020496607,4208.089683597583,217.0,4.12510312757819
166,8954.680318684264,2592.7821186594665,4207.599559641124,217.0,4.150103752593815
167,9056.084741308105,2620.6787707693875,4207.109852785771,217.0,4.175104377609441
168,9157.482234019822,2648.55397984758,4206.620562619186,217.0,4.200105002625066
169,9258.872803396944,2676.4077489189804,4206.131688729746,217.0,4.2251056276406915
170,9360.2564560071,2704.2400809787214,4205.643230706543,217.0,4.250106252656317
171,9461.633198408033,2732.050979040563,4205.155188139383,217.0,4.275106877671942
172,9563.003037147615,2759.840446110815,4204.6675606187855,217.0,4.300107502687568
173,9664.365978763868,2787.6084851771593,4204.180347735978,217.0,4.325108127703193
174,9765.722029784976,2815.3550992310047,4203.693549082899,217.0,4.3501087527188185
175,9867.0711967293,2843.080291260034,4203.207164252196,217.0,4.375109377734444
176,9968.413486105392,2870.784064244479,4202.72119283722,217.0,4.400110002750069
177,10069.74890441202,2898.466421160847,4202.23563443203,217.0,4.425110627765695
178,10171.077458138172,2926.127364974469,4201.750488631386,217.0,4.45011125278132
179,10272.399153763074,2953.7668986581266,4201.265755030754,217.0,4.475111877796945
180,10373.713997756218,2981.3850251697004,4200.781433226297,217.0,4.500112502812571
181,10475.021996577361,3008.9817474633455,4200.29752281488,217.0,4.525113127828196
182,10576.32315667654,3036.5570684932172,4199.814023394064,217.0,4.550113752843822
183,10677.617484494107,3064.110991202295,4199.330934562108,217.0,4.575114377859447
184,10778.904986460728,3091.6435185410082,4198.8482559179665,217.0,4.600115002875072
185,10880.1856689974,3119.154653429985,4198.365987061286,217.0,4.625115627890698
186,10981.459538515464,3146.6443988122046,4197.88412759241,217.0,4.650116252906323
187,11082.726601416636,3174.11275761202,4197.402677112365,217.0,4.6751168779219485
188,11183.986864093007,3201.559732746333,4196.921635222876,217.0,4.700117502937574
189,11285.240332927056,3228.985327143222,4196.441001526351,217.0,4.725118127953199
190,11386.487014291684,3256.3895437009633,4195.960775625886,217.0,4.750118752968825
191,11487.726914550203,3283.7723853364587,4195.480957125263,217.0,4.77511937798445
192,11588.96004005637,3311.1338549517095,4195.001545628948,217.0,4.8001200030000755
193,11690.18639715441,3338.4739554338157,4194.522540742091,217.0,4.825120628015701
194,11791.405992178998,3365.7926896885037,4194.043942070521,217.0,4.850121253031326
195,11892.618831455304,3393.0900605991483,4193.565749220749,217.0,4.875121878046952
196,11993.824921299001,3420.366071049124,4193.087961799964,217.0,4.900122503062577
197,12095.024268016277,3447.620723914355,4192.610579416034,217.0,4.925123128078202
198,12196.216877903846,3474.8540220707655,4192.1336016774985,217.0,4.950123753093828
199,12297.402757248965,3502.065968386829,4191.657028193577,217.0,4.975124378109453
200,12398.581912329464,3529.2565657272935,4191.18085857416,217.0,5.000125003125079
201,12499.754349413739,3556.425816953182,4190.70509242981,217.0,5.025125628140704
202,12600.920074760776,3583.5737249180675,4190.229729371759,217.0,5.050126253156329
203,12702.079094620169,3610.700292468071,4189.754769011912,217.0,5.075126878171955
204,12803.231415232134,3637.80552245304,4189.2802109628365,217.0,5.10012750318758
205,12904.377042827513,3664.8894177116454,4188.806054837772,217.0,5.1251281282032055
206,13005.515983627805,3691.9519810825586,4188.332300250619,217.0,5.150128753218831
207,13106.648243845177,3718.9932153895497,4187.858946815943,217.0,5.175129378234456
208,13207.773829682463,3746.01312347129,4187.385994148976,217.0,5.200130003250082
209,13308.892747333199,3773.0117081403732,4186.913441865607,217.0,5.225130628265707
210,13410.005002981632,3799.9889722168446,4186.441289582386,217.0,5.2501312532813325
211,13511.11060280272,3826.944918513298,4185.969536916521,217.0,5.275131878296958
212,13612.209552962173,3853.8795498386025,4185.498183485881,217.0,5.300132503312583
213,13713.301859616442,3880.7928689941764,4185.027228908985,217.0,5.325133128328209
214,13814.387528912746,3907.6848787777126,4184.556672805013,217.0,5.350133753343834
215,13915.466566989096,3934.555581986904,4184.086514793793,217.0,5.375134378359459
216,14016.538979974288,3961.404981404543,4183.616754495809,217.0,5.400135003375085
217,14117.604773987927,3988.233079828322,4183.147391532194,217.0,5.42513562839071
218,14218.663955140455,4015.0398800224066,4182.678425524731,217.0,5.450136253406336
