,distance,altitude,velocity,mass,time
0,0.0,0.0,0.0,1534.0,0.0
1,4.325410185722167,0.9981208182871342,88.99325492050198,1534.0,0.1000100010001
2,17.39680924593713,3.9633864127099514,179.30894515155677,1490.857142857143,0.2000200020002
3,39.41324396281505,8.627163957804441,271.02579785493793,1490.857142857143,0.3000300030003
4,70.54494080888652,14.844653978943825,364.1425462676757,1447.7142857142858,0.4000400040004
5,110.94612649965725,22.54980233684182,458.68857962434026,1447.7142857142858,0.5000500050005
6,160.7703342515031,31.69664641469717,554.6983026762788,1404.5714285714287,0.6000600060006
7,220.17231827449848,42.25185004249215,652.2075741421369,1404.5714285714287,0.7000700070007
8,289.3088153759055,54.19076992198825,751.2501998430206,1361.4285714285716,0.8000800080008
9,368.3386056355594,67.495077252388,851.85451118925,1361.4285714285716,0.9000900090009001
10,457.42233339790647,82.15120927244425,954.0443603696042,1318.2857142857144,1.000100010001
11,556.7219579195578,98.14925827085972,1057.833872436224,1318.2857142857144,1.1001100110011
12,666.4007866306275,115.48225992918015,1163.2643648873513,1275.1428571428573,1.2001200120012
13,786.6346242637692,134.14740831404924,1270.548056563006,1275.1428571428573,1.3001300130013
14,917.6123526031436,154.1456881351769,1379.694254113856,1232.0000000000002,1.4001400140014
15,1059.5219788274,175.47936744615436,1490.73381807612,1232.0000000000002,1.5001500150015001
16,1212.5565920355762,198.15268168970942,1603.7274346330921,1188.8571428571431,1.6001600160016
17,1376.915611302396,222.17181606590748,1718.7452404660064,1188.8571428571431,1.7001700170017
18,1552.8054689913827,247.544833753258,1835.8607385065632,1145.714285714286,1.8001800180018002
19,1740.4398139240652,274.28156024962664,1955.1481804623263,1145.714285714286,1.9001900190019
20,1940.039823374579,302.39350533112884,2076.688127709781,1102.571428571429,2.000200020002
21,2151.834777240133,331.8938393816352,2200.56469300338,1102.571428571429,2.1002100210021
22,2376.0625496299062,362.7973701991141,2326.868684773372,1059.4285714285718,2.2002200220022
23,2612.97008831742,395.1205287761986,2455.6938410239763,1059.4285714285718,2.3002300230023
24,2862.814039394192,428.8813828974962,2587.1435083590663,1016.2857142857147,2.4002400240024
25,3125.8616359522484,464.09969287365675,2721.3281321242725,1016.2857142857147,2.5002500250025
26,3402.390974186019,500.7968896962702,2858.3552241372495,973.1428571428576,2.6002600260026
27,3692.691009260202,538.9960217215121,2998.341475125707,973.1428571428576,2.7002700270027002
28,3997.063063313695,578.7219061329961,3141.418123946291,930.0000000000005,2.8002800280028
29,4315.821919151204,620.0012260712683,3287.725950280643,930.0000000000005,2.9002900290029
30,4649.296818640252,662.8626163192093,3437.4162391807795,886.8571428571433,3.0003000300030003
31,4997.832562622306,707.3367632366717,3590.6518719282826,886.8571428571433,3.1003100310031
32,5361.790725925337,753.4565201289952,3747.6085635061913,843.7142857142862,3.2003200320032
33,5741.551003260268,801.2570393942297,3908.476270911395,843.7142857142862,3.3003300330033003
34,6137.5127044135825,850.7759233675897,4073.460801352812,800.5714285714291,3.4003400340034
35,6550.096420311956,902.0533959902823,4214.069332300136,800.5714285714291,3.5003500350035
36,6968.270247894222,953.7125041782856,4213.351972591764,793.380952380953,3.6003600360036003
37,7386.409991135309,1005.0543244108558,4212.637540876767,793.380952380953,3.7003700370037
38,7804.474082414852,1056.0738007761538,4211.087421818195,217.0,3.8003800380038
39,8222.421068973928,1106.7659305408597,4209.542028179081,217.0,3.9003900390039004
40,8640.251188396436,1157.1308238878846,4208.001344327288,217.0,4.000400040004
41,9057.964676674172,1207.1685905121267,4206.4653547059925,217.0,4.1004100410041
42,9475.561768214076,1256.8793395981193,4204.934043833058,217.0,4.2004200420042
43,9893.04269584538,1306.2631798498333,4203.407396300407,217.0,4.3004300430043
44,10310.407690826714,1355.3202194869518,4201.8853967734,217.0,4.4004400440044
45,10727.65698285315,1404.050566226244,4200.3680299902235,217.0,4.5004500450045
46,11144.790800063203,1452.4543273411691,4198.8552807612705,217.0,4.6004600460046
47,11561.809369045772,1500.531609594822,4197.347133968538,217.0,4.7004700470047
48,11978.712914847027,1548.2825193032622,4195.84357456502,217.0,4.8004800480048
49,12395.501660977234,1595.7071623019874,4194.34458757411,217.0,4.9004900490049
50,12812.17582941755,1642.8056439757347,4192.850158088997,217.0,5.000500050005
51,13228.735640626739,1689.5780692510307,4191.360271272084,217.0,5.1005100510051005
52,13645.181313547848,1736.0245425775647,4189.874912354394,217.0,5.2005200520052
53,14061.513065614829,1782.1451679840684,4188.394066634983,217.0,5.3005300530053
54,14477.731112759113,1827.940049033612,4186.917719480364,217.0,5.4005400540054005
55,14893.835669416128,1873.4092888496816,4185.445856323931,217.0,5.5005500550055
56,15309.826948531767,1918.5529901199043,4183.978462665381,217.0,5.6005600560056
57,15725.705161568796,1963.3712550923228,4182.515524070148,217.0,5.7005700570057005
58,16141.470518513237,2007.8641855828464,4181.057026168836,217.0,5.8005800580058
59,16557.123227880675,2052.0318829864264,4179.602954656661,217.0,5.9005900590059
60,16972.66349672251,2095.8744482696056,4178.1532952928865,217.0,6.0006000600060005
61,17388.091530632213,2139.391981970519,4176.708033900274,217.0,6.1006100610061
62,17803.407533751444,2182.584584224969,4175.267156364533,217.0,6.2006200620062
63,18218.611708776218,2225.4523547403514,4173.830648633767,217.0,6.300630063006301
64,18633.704256962938,2267.9953928291798,4172.398496717936,217.0,6.4006400640064
65,19048.68537813443,2310.213797390461,4170.970686688314,217.0,6.5006500650065
66,19463.555270685938,2352.10766691342,4169.547204676954,217.0,6.600660066006601
67,19878.314131591014,2393.6770994998515,4168.128036876149,217.0,6.7006700670067
68,20292.962156407415,2434.9221928603947,4166.713169537907,217.0,6.8006800680068
69,20707.49953928295,2475.843044295907,4165.302588973425,217.0,6.900690069006901
70,21121.927395120918,2516.439750738442,4163.896281552561,217.0,7.000700070007
71,21536.24412327523,2556.712408721447,4162.494233703323,217.0,7.1007100710071
72,21950.450787811293,2596.6611144021153,4161.0964319113355,217.0,7.200720072007201
73,22364.547575793236,2636.285963561386,4159.702862719347,217.0,7.3007300730073
74,22778.534671867343,2675.5870516076684,4158.313512726705,217.0,7.4007400740074
75,23192.41226266869,2714.5644735768437,4156.928368588854,217.0,7.500750075007501
76,23606.180534601055,2753.2183241322637,4155.547417016834,217.0,7.6007600760076
77,24019.839671846312,2791.548697575927,4154.170644776773,217.0,7.7007700770077
78,24433.389854576024,2829.555687855929,4152.798038689396,217.0,7.800780078007801
79,24846.831261244923,2867.2393885552883,4151.429585629531,217.0,7.9007900790079
80,25260.164070659,2904.59989291057,4150.065272525611,217.0,8.000800080008
81,25673.388465732663,2941.6372937969863,4148.705086359192,217.0,8.1008100810081
82,26086.50461643958,2978.351683754474,4147.349014164466,217.0,8.2008200820082
83,26499.512704619312,3014.743154965341,4145.997043027774,217.0,8.3008300830083
84,26912.412897846214,3050.8117992840707,4144.649160087138,217.0,8.4008400840084
85,27325.205373585926,3086.557708222419,4143.305352531771,217.0,8.5008500850085
86,27737.89029748583,3121.9809729643166,4141.965607601614,217.0,8.6008600860086
87,28150.46784492066,3157.081684347242,4140.629912586859,217.0,8.7008700870087
88,28562.938178224256,3191.8599328920245,4139.298254827484,217.0,8.8008800880088
89,28975.30146770835,3226.3158087953925,4137.97062171279,217.0,8.9008900890089
90,29387.557882857767,3260.4494019337,4136.647000680933,217.0,9.000900090009
91,29799.707582629468,3294.2608018592,4135.327379218472,217.0,9.1009100910091
92,30211.75073222832,3327.750097807497,4134.011744859906,217.0,9.2009200920092
93,30623.68749319084,3360.9173787124455,4132.700085187224,217.0,9.3009300930093
94,31035.518026759408,3393.7627331875265,4131.3923878294545,217.0,9.4009400940094
95,31447.242492364858,3426.2862495556474,4130.088640462212,217.0,9.5009500950095
96,31858.861047748855,3458.4880158156157,4128.788830807259,217.0,9.6009600960096
97,32270.37385208243,3490.3681196905673,4127.492946632053,217.0,9.7009700970097
98,32681.78105846173,3521.9266485869884,4126.200975749318,217.0,9.8009800980098
99,33093.082820152355,3553.163689624518,4124.912906016594,217.0,9.900990099009901
100,33504.27929637355,3584.0793296396732,4123.628725335814,217.0,10.00100010001
101,33915.370630493606,3614.673655167222,4122.348421652861,217.0,10.1010101010101
102,34326.35697782651,3644.946752473712,4121.071982957144,217.0,10.201020102010201
103,34737.23848817693,3674.898707535118,4119.7993972811655,217.0,10.3010301030103
104,35148.01530754657,3704.5296060480177,4118.530652700104,217.0,10.4010401040104
105,35558.68758790489,3733.8395334258676,4117.26573733138,217.0,10.501050105010501
106,35969.2554652807,3762.8285748399794,4116.004639334246,217.0,10.6010601060106
107,36379.719097990994,3791.496815148741,4114.747346909365,217.0,10.7010701070107
108,36790.07861399301,3819.8443389832973,4113.493848298391,217.0,10.801080108010801
109,37200.33416601183,3847.8712306804955,4112.244131783562,217.0,10.9010901090109
110,37610.485890221375,3875.5775743350387,4110.998185687286,217.0,11.001100110011
111,38020.53392754935,3902.9634537771344,4109.755998371732,217.0,11.101110111011101
112,38430.47842090353,3930.0289525836706,4108.517558238427,217.0,11.2011201120112
113,38840.31949759076,3956.7741540670395,4107.282853727847,217.0,11.3011301130113
114,39250.05730349508,3983.1991413086653,4106.051873319022,217.0,11.401140114011401
115,39659.691965437785,4009.3039971366525,4104.824605529131,217.0,11.5011501150115
116,40069.22362604367,4035.088804129511,4103.601038913107,217.0,11.6011601160116
117,40478.65240820138,4060.5536446273327,4102.381162063244,217.0,11.701170117011701
118,40887.97844926468,4085.698600728065,4101.164963608801,217.0,11.8011801180118
119,41297.20187920117,4110.523754313588,4099.952432215614,217.0,11.9011901190119
120,41706.32282212083,4135.029187005013,4098.743556585707,217.0,12.001200120012001
121,42115.34141268447,4159.214980203658,4097.538325456905,217.0,12.1012101210121
122,42524.257773931466,4183.081215094775,4096.33672760245,217.0,12.2012201220122
123,42933.07203252056,4206.627972628921,4095.1387518306224,217.0,12.301230123012301
124,43341.78430961081,4229.855333529413,4093.9443869843544,217.0,12.4012401240124
125,43750.394732206,4252.763378310949,4092.753621940859,217.0,12.5012501250125
126,44158.90342300319,4275.352187268436,4091.56644561125,217.0,12.601260126012601
127,44567.31049950485,4297.62184047699,4090.38284694017,217.0,12.7012701270127
128,44975.61608180522,4319.572417814285,4089.2028149054195,217.0,12.8012801280128
129,45383.8202903393,4341.203998927027,4088.0263385175836,217.0,12.901290129012901
130,45791.92324163411,4362.51666328311,4086.8534068196677,217.0,13.001300130013
131,46199.92505268266,4383.5104901231825,4085.6840088867307,217.0,13.1013101310131
132,46607.8258388451,4404.185558505356,4084.5181338255206,217.0,13.201320132013201
133,47015.62571392201,4424.5419472754,4083.355770774113,217.0,13.3013301330133
134,47423.32479124653,4444.579735089093,4082.1969089015515,217.0,13.4013401340134
135,47830.923181678896,4464.299000423402,4081.0415374074882,217.0,13.501350135013501
136,48238.42099471852,4483.699821535498,4079.8896455218296,217.0,13.6013601360136
137,48645.81834554173,4502.782276522368,4078.7412225043786,217.0,13.7013701370137
138,49053.115335984214,4521.546443283558,4077.596257644486,217.0,13.801380138013801
139,49460.312077643925,4539.992399532348,4076.4547402606977,217.0,13.9013901390139
140,49867.40867786978,4558.120222810656,4075.316659700405,217.0,14.001400140014
141,50274.40523704199,4575.929990481585,4074.1820053395,217.0,14.101410141014101
142,50681.30186416396,4593.421779725701,4073.0507665820264,217.0,14.2014201420142
143,51088.09866133278,4610.595667563379,4071.9229328598403,217.0,14.3014301430143
144,51494.7957268394,4627.451730836183,4070.798493632265,217.0,14.401440144014401
145,51901.39316559783,4643.990046221763,4069.677438385751,217.0,14.5014501450145
146,52307.891075909996,4660.210690230131,4068.5597566335405,217.0,14.6014601460146
147,52714.28955708238,4676.113739214838,4067.445437915327,217.0,14.701470147014701
148,53120.5887057377,4691.699269358069,4066.3344717969235,217.0,14.8014801480148
149,53526.788621354586,4706.96735670045,4065.2268478699248,217.0,14.9014901490149
150,53932.88939627089,4721.918077111244,4064.122555751381,217.0,15.001500150015001
151,54338.89112487685,4736.551506321877,4063.021585083464,217.0,15.1015101510151
152,54744.79390442652,4750.867719903588,4061.9239255331395,217.0,15.2015201520152
153,55150.597820864874,4764.866793286055,4060.8295667918405,217.0,15.301530153015301
154,55556.302971938065,4778.548801749945,4059.738498575142,217.0,15.4015401540154
155,55961.90944423611,4791.913820430636,4058.6507106224385,217.0,15.5015501550155
156,56367.41732650111,4804.961924336851,4057.566192696618,217.0,15.601560156015601
157,56772.82670869779,4817.693188320845,4056.4849345837474,217.0,15.7015701570157
158,57178.13767857896,4830.107687115669,4055.406926092747,217.0,15.8015801580158
159,57583.35031923844,4842.205495309085,4054.332157055078,217.0,15.901590159015901
160,57988.464719310825,4853.986687362194,4053.2606173244235,217.0,16.001600160016
161,58393.480959492765,4865.451337605715,4052.1922967763758,217.0,16.1016101610161
162,58798.39912436465,4876.59952025488,4051.127185308123,217.0,16.2016201620162
163,59203.21929488698,4887.431309394538,4050.0652728381356,217.0,16.301630163016302
164,59607.94155177886,4897.946778975427,4049.0065493058596,217.0,16.4016401640164
165,60012.565976335616,4908.146002855152,4047.9510046714045,217.0,16.5016501650165
166,60417.09264559469,4918.029054753482,4046.8986289152376,217.0,16.6016601660166
167,60821.521636465266,4927.596008289605,4045.8494120378805,217.0,16.7016701670167
168,61225.85302969407,4936.846936956048,4044.8033440595996,217.0,16.8016801680168
169,61630.08689715065,4945.781914152205,4043.7604150201078,217.0,16.901690169016902
170,62034.223315407624,4954.4010131545365,4042.72061497826,217.0,17.001700170017
171,62438.26235626933,4962.704307150096,4041.683934011754,217.0,17.1017101710171
172,62842.20409618664,4970.691869214177,4040.650362216832,217.0,17.2017201720172
173,63246.04860230777,4978.363772328943,4039.619889707981,217.0,17.3017301730173
174,63649.79594648891,4985.720089357346,4038.59250661764,217.0,17.4017401740174
175,64053.4462013614,4992.760893102735,4037.5682030959,217.0,17.501750175017502
176,64456.99943203236,4999.486256245524,4036.5469693102173,217.0,17.6017601760176
177,64860.45570603984,5005.896251376718,4035.5287954451132,217.0,17.7017701770177
178,65263.815091049444,5011.990951020271,4034.51367170189,217.0,17.8017801780178
179,65667.07765558994,5017.770427595824,4033.501588298336,217.0,17.9017901790179
180,66070.24345875185,5023.234753441066,4032.4925354684415,217.0,18.001800180018
181,66473.31256579518,5028.384000808001,4031.4865034621075,217.0,18.101810181018102
182,66876.28504143804,5033.218241885304,4030.483482544861,217.0,18.2018201820182
183,67279.1609484321,5037.73754876107,4029.4834629975726,217.0,18.3018301830183
184,67681.94034260644,5041.94199346751,4028.486435116169,217.0,18.4018401840184
185,68084.62328589425,5045.831647954881,4027.4923892113543,217.0,18.5018501850185
186,68487.20983694894,5049.406584106386,4026.5013156083237,217.0,18.6018601860186
187,68889.70005405667,5052.666873730719,4025.513204646491,217.0,18.701870187018702
188,69292.09399234827,5055.6125885769725,4024.5280466792024,217.0,18.8018801880188
189,69694.39171015372,5058.2438003234565,4023.5458320734624,217.0,18.9018901890189
190,70096.59325991712,5060.560580596328,4022.566551209658,217.0,19.001900190019
191,70498.69869524431,5062.563000950962,4021.59019448128,217.0,19.1019101910191
192,70900.70807018662,5064.251132890582,4020.616752294653,217.0,19.2019201920192
193,71302.62143446814,5065.625047866255,4019.6462150686575,217.0,19.301930193019302
194,71704.43884239982,5066.68481727317,4018.678573234463,217.0,19.4019401940194
195,72106.16033997388,5067.430512450635,4017.7138172352516,217.0,19.5019501950195
196,72507.78597847145,5067.862204704434,4016.751937525952,217.0,19.6019601960196
197,72909.31580500556,5067.979965269566,4015.7929245729706,217.0,19.7019701970197
198,73310.74986660486,5067.783865366131,4014.8367688539206,217.0,19.801980198019802
199,73712.08820890081,5067.2739761434495,4013.8834608573593,217.0,19.901990199019902
200,74113.3308774747,5066.450368735939,4025.6237309096878,216.31341719077568,20.00200020002
201,74519.57024574497,5065.299752671272,4101.282224093381,216.31341719077568,20.1020102010201
202,74933.40775836678,5063.811164271086,4177.646082391254,212.19392033542977,20.2020202020202
203,75354.91434859106,5061.978869944811,4254.728606774678,212.19392033542977,20.3020302030203
204,75784.16229730296,5059.7971431054175,4332.543501297132,208.07442348008385,20.402040204020402
205,76221.22528111233,5057.260261341929,4411.104889680382,208.07442348008385,20.502050205020502
206,76666.17840970842,5054.362503614277,4490.427332782317,203.95492662473794,20.6020602060206
207,77119.09824459597,5051.098147656769,4570.525043989113,203.95492662473794,20.7020702070207
208,77580.06274547422,5047.461468014866,4651.412158283487,199.83542976939202,20.8020802080208
209,78049.15136903449,5043.446732990444,4733.104392157702,199.83542976939202,20.9020902090209
210,78526.44517665739,5039.04820150882,4815.618008273908,195.7159329140461,21.002100210021002
211,79012.02688284479,5034.260120313615,4898.969791388302,195.7159329140461,21.102110211021103
212,79505.98090583875,5029.076721139252,4983.177071195139,191.5964360587002,21.2021202120212
213,80008.39342804551,5023.492217838764,5068.2577382549725,191.5964360587002,21.3021302130213
214,80519.35243373452,5017.500803720206,5154.229742888266,187.47693920335428,21.4021402140214
215,81038.94771705393,5011.0966492034495,5241.111661616947,187.47693920335428,21.5021502150215
216,81567.27098879119,5004.273898396641,5328.923149767267,183.35744234800836,21.602160216021602
217,82104.41596622519,4997.026665851474,5417.684534621551,183.35744234800836,21.702170217021703
218,82650.4784289373,4989.349033512175,5507.416846805686,179.23794549266245,21.8021802180218
219,83205.55630075825,4981.235047485679,5598.141853554482,179.23794549266245,21.9021902190219
220,83769.74971993896,4972.678714811802,5689.8820939915595,175.11844863731653,22.002200220022
221,84343.16111910832,4963.674000103027,5782.6609165722175,175.11844863731653,22.1022102210221
222,84925.89530972943,4954.214822098613,5876.502518850707,170.99895178197062,22.202220222022202
223,85518.05956602166,4944.295050106943,5971.431989747599,170.99895178197062,22.302230223022303
224,86119.7637187798,4933.908500321209,6067.475354508659,166.8794549266247,22.4022402240224
225,86731.12025271136,4923.048932038248,6164.6596225640305,166.8794549266247,22.5022502250225
226,87352.24437958525,4911.710044164211,6263.011970524944,162.7599580712788,22.6022602260226
227,87983.25398884654,4899.885474015027,6362.559370724156,162.7599580712788,22.7022702270227
228,88624.26981485687,4887.56879228726,6463.331659367245,158.64046121593287,22.802280228022802
229,89275.41564618399,4874.7534969858825,6565.35997664253,158.64046121593287,22.902290229022903
230,89936.81845292475,4861.4330089055,6668.676709621319,154.52096436058696,23.002300230023
231,90608.60850097373,4847.600666876882,6773.315195233972,154.52096436058696,23.1023102310231
232,91290.91916872785,4833.249729830772,6879.303413123393,150.40146750524104,23.2023202320232
233,91983.88670291656,4818.373379945755,6986.6733109646675,150.40146750524104,23.3023302330233
234,92687.65085729695,4802.964707568288,7095.461740410001,146.28197064989513,23.402340234023402
