,distance,altitude,velocity,mass,time
0,0.0,0.0,0.0,1534.0,0.0
1,0.24849006680027028,0.11655763909220695,21.97058089157798,1534.0,0.025000625015625392
2,0.9951296566887065,0.4668264277279377,44.02000263863681,1523.2142857142858,0.050001250031250784
3,2.2416818868897415,1.0517048202455044,66.14880916533446,1523.2142857142858,0.07500187504687618
4,3.9899220084222624,1.87209752202034,88.35754945171564,1512.4285714285716,0.10000250006250157
5,6.244473259865663,2.923105414956808,110.65853727569504,1512.4285714285716,0.12500312507812697
6,9.013787659318867,4.191911779344082,133.04739590133434,1501.6428571428573,0.15000375009375236
7,12.30114934212631,5.676238182932138,155.52195614632132,1501.6428571428573,0.17500437510937775
8,16.109624833761174,7.374272979795933,178.082214595817,1490.8571428571431,0.20000500012500314
9,20.442129061206067,9.28454514592886,200.72831578925198,1490.8571428571431,0.22500562514062852
10,25.301466052202905,11.405844610184431,223.46050468532383,1480.071428571429,0.25000625015625394
11,30.690356432887057,13.737167984247208,246.27909825254494,1480.071428571429,0.27500687517187933
12,36.61145688200564,16.27767986059189,269.1844674359019,1469.2857142857147,0.3000075001875047
13,43.06737440562136,19.026684280484915,292.17702515891375,1469.2857142857147,0.3250081252031301
14,50.06067712681871,21.983603093773127,315.25721803466763,1458.5000000000005,0.3500087502187555
15,57.5939026452682,25.147959105670452,338.4255204601505,1458.5000000000005,0.3750093752343809
16,65.66956465118807,28.519362784922123,361.6824302997366,1447.7142857142862,0.40001000025000627
17,74.29015825362146,32.09750152006745,385.0284656619073,1447.7142857142862,0.42501062526563166
18,83.45816434126753,35.882130827754736,408.4641624484077,1436.928571428572,0.45001125028125705
19,93.17605320171513,39.87306713685393,431.9900717086363,1436.928571428572,0.47501187529688244
20,103.44628739156894,44.070181634277105,455.60674323086636,1426.1428571428578,0.5000125003125079
21,114.27132407452706,48.47339503094554,479.3147427952549,1426.1428571428578,0.5250131253281333
22,125.65361745873824,53.08267329633236,503.1146556976491,1415.3571428571436,0.5500137503437587
23,137.59562076266602,57.898023929446936,527.0070748918006,1415.3571428571436,0.575014375359384
24,150.09978736232452,62.91949250921607,550.992565712159,1404.5714285714294,0.6000150003750094
25,163.16857198453573,68.14715974777937,575.0717143877979,1404.5714285714294,0.6250156253906348
26,176.80443102769456,73.58113864436746,599.245027747187,1393.7857142857151,0.6500162504062602
27,191.00982338834612,79.22157217562199,623.5130812333081,1393.7857142857151,0.6750168754218856
28,205.7872117897332,85.06863151490688,647.8764220815478,1383.000000000001,0.700017500437511
29,221.13906373243103,91.12251431122422,672.3356446682902,1383.000000000001,0.7250181254531364
30,237.0678517944952,97.38344297930598,696.8912045550018,1372.2142857142867,0.7500187504687618
31,253.57604972676438,103.85166148841381,721.5434625360174,1372.2142857142867,0.7750193754843872
32,270.6661354713286,110.52743507921696,746.2929542011541,1361.4285714285725,0.8000200005000125
33,288.3405914704292,117.4110490269959,771.1400242213706,1361.4285714285725,0.8250206255156379
34,306.60190180064507,124.50280632451177,796.0850561889498,1350.6428571428582,0.8500212505312633
35,325.4525562118177,131.80302814394236,821.1285767836474,1350.6428571428582,0.8750218755468887
36,344.89505147769927,139.31205334886909,846.2710905253034,1339.857142857144,0.9000225005625141
37,364.9318903826353,147.03023718297482,871.5129435949524,1339.857142857144,0.9250231255781395
38,385.5655731687486,154.95794712379575,896.8540655293203,1329.0714285714298,0.9500237505937649
39,406.79860066921515,163.09556334465742,922.2949611056054,1329.0714285714298,0.9750243756093903
40,428.6334818370075,171.44348089396954,947.8360676153989,1318.2857142857156,1.0000250006250158
41,451.0727271993768,180.0021065287292,973.4773307864808,1318.2857142857156,1.0250256256406411
42,474.11884043961516,188.77185490354896,999.2187345077665,1307.5000000000014,1.0500262506562665
43,497.7743260469058,197.75315097346902,1025.0605445063782,1307.5000000000014,1.075026875671892
44,522.0416913336829,206.9464302174747,1051.0030079749924,1296.7142857142871,1.1000275006875173
45,546.923446158718,216.35213807970285,1077.0463528122882,1296.7142857142871,1.1250281257031427
46,572.422114696597,225.97073394432664,1103.192438382129,1285.928571428573,1.150028750718768
47,598.5402880960124,235.80271055921912,1129.444504001808,1285.928571428573,1.1750293757343935
48,625.2806211417468,245.84859223291278,1155.8056316134064,1275.1428571428587,1.2000300007500189
49,652.6459020423902,256.1089605279267,1182.2851689086403,1275.1428571428587,1.2250306257656443
50,680.6391659139776,266.58449617400765,1208.8912375232123,1264.3571428571445,1.2500312507812696
51,709.2634075741777,277.27587093040347,1235.614712336914,1264.3571428571445,1.275031875796895
52,738.5214894368157,288.1837129332125,1262.454327620947,1253.5714285714303,1.3000325008125204
53,768.416246255244,299.3086457885802,1289.4091738546858,1253.5714285714303,1.3250331258281458
54,798.9505167814646,310.65130015462637,1316.480169017144,1242.785714285716,1.3500337508437712
55,830.1271513559452,322.2123162932694,1343.667513395499,1242.785714285716,1.3750343758593966
56,861.9490093614585,333.99234292283654,1370.972104565485,1232.0000000000018,1.400035000875022
57,894.4189750320498,345.9920428469777,1398.3951432364568,1232.0000000000018,1.4250356258906474
58,927.5399572986244,358.21209263056517,1425.937652371035,1221.2142857142876,1.4500362509062728
59,961.314883880091,370.6531802415848,1453.6003331580155,1221.2142857142876,1.4750368759218981
60,995.7466987876704,383.3160039037466,1481.3840877072419,1210.4285714285734,1.5000375009375235
61,1030.8383681174826,396.201274048537,1509.2899561225388,1210.4285714285734,1.525038125953149
62,1066.5928812690297,409.3097135722637,1537.318994493794,1199.6428571428592,1.5500387509687743
63,1103.0132513836356,422.6420578211546,1565.4722904273847,1199.6428571428592,1.5750393759843997
64,1140.1025179088172,436.1990553587675,1593.7510752778587,1188.857142857145,1.600040001000025
65,1177.8637460124105,449.9814675822854,1622.156399799929,1188.857142857145,1.6250406260156505
66,1216.3000250637115,463.99006801471114,1650.6893876387642,1178.0714285714307,1.6500412510312759
67,1255.414470163968,478.22564271464944,1679.3511877443107,1178.0714285714307,1.6750418760469012
68,1295.2102226214186,492.6889902949333,1708.1429674636736,1167.2857142857165,1.7000425010625266
69,1335.6904504333847,507.3809219747782,1737.0659129291478,1167.2857142857165,1.725043126078152
70,1376.858348775797,522.30226162076,1766.12122945727,1156.5000000000023,1.7500437510937774
71,1418.7171405005352,537.4538457803428,1795.3101419592015,1156.5000000000023,1.7750443761094028
72,1461.270075745517,552.8365234583616,1824.6337695961354,1145.714285714288,1.8000450011250282
73,1504.520428083111,568.4511545784771,1854.0931401247356,1145.714285714288,1.8250456261406536
74,1548.4714973325035,584.2986108846962,1883.6895004512423,1134.9285714285738,1.850046251156279
75,1593.1266123635128,600.3797768838704,1913.4241278810412,1134.9285714285738,1.8750468761719044
76,1638.4891316072255,616.6955498792231,1943.2983201969873,1124.1428571428596,1.9000475011875297
77,1684.5624435756445,633.2468400970101,1973.313396098638,1124.1428571428596,1.9250481262031551
78,1731.3499673907174,650.0345707461238,2003.470695653762,1113.3571428571454,1.9500487512187805
79,1778.85515332309,667.0596781335771,2033.7715699914324,1113.3571428571454,1.975049376234406
80,1827.0814813593156,684.3231110535562,2064.2172361537177,1102.5714285714312,2.0000500012500315
81,1876.0324602367841,701.8258303664625,2094.8090187998755,1102.5714285714312,2.025050626265657
82,1925.7116306597195,719.5688100494444,2125.5483294674113,1091.785714285717,2.0500512512812823
83,1976.122566287571,737.5530374757946,2156.4366026994558,1091.785714285717,2.0750518762969077
84,2027.2688743083102,755.779513541609,2187.4752965498533,1081.0000000000027,2.100052501312533
85,2079.1541960230597,774.2492527849972,2218.6658931024695,1081.0000000000027,2.1250531263281585
86,2131.782207442427,792.9632835425436,2250.0098990051742,1070.2142857142885,2.150053751343784
87,2185.1566186943287,811.9226476363838,2281.508691110152,1070.2142857142885,2.1750543763594092
88,2239.2811707138126,831.128399156034,2313.163647206472,1059.4285714285743,2.2000550013750346
89,2294.159639160234,850.581605758518,2344.976326667282,1059.4285714285743,2.22505562639066
90,2349.795836351716,870.2833493128419,2376.9483158075154,1048.64285714286,2.2500562514062854
91,2406.193611902108,890.2347260341048,2409.081227382477,1048.64285714286,2.275056876421911
92,2463.3568533712996,910.436846666038,2441.376701183963,1037.8571428571458,2.300057501437536
93,2521.289486929325,930.890836648643,2473.836404653455,1037.8571428571458,2.3250581264531616
94,2579.9954780346875,951.5978362932801,2506.462033512962,1027.0714285714316,2.350058751468787
95,2639.4788321273586,972.5590009614825,2539.2553124141136,1027.0714285714316,2.3750593764844123
96,2699.74359533691,993.7755012772977,2572.217995606111,1016.2857142857173,2.4000600015000377
97,2760.7938552062615,1015.2485232912004,2605.351867623196,1016.2857142857173,2.425060626515663
98,2822.633741431527,1036.9792687185109,2638.6587439923064,1005.500000000003,2.4500612515312885
99,2885.267426618473,1058.9689551219344,2672.1404719616144,1005.500000000003,2.475061876546914
100,2948.6991270561075,1081.2188161499798,2705.7989055614785,994.7142857142886,2.5000625015625393
101,3012.9330969144985,1103.7300994321704,2739.635321970424,994.7142857142886,2.5250631265781647
102,3077.97361963911,1126.5040635317564,2773.651217443804,983.9285714285743,2.55006375159379
103,3143.825020307066,1149.5419822260737,2807.8485024180973,983.9285714285743,2.5750643766094155
104,3210.4916692299853,1172.8451457209885,2842.2291200330283,973.14285714286,2.600065001625041
105,3277.977982749233,1196.414860881865,2876.7950468912513,973.14285714286,2.6250656266406662
106,3346.2884240491453,1220.2524514719844,2911.54829384038,962.3571428571456,2.6500662516562916
107,3415.4275039887816,1244.3592583946884,2946.4909067781487,962.3571428571456,2.675066876671917
108,3485.399781952754,1268.7366399355233,2981.624967481526,951.5714285714313,2.7000675016875424
109,3556.209866721756,1293.3859720341861,3016.9525944606294,951.5714285714313,2.725068126703168
110,3627.8624173633716,1318.308648545295,3052.4759438383303,940.785714285717,2.750068751718793
111,3700.3621441438145,1343.5060814991593,3088.1972102564746,940.785714285717,2.7750693767344186
112,3773.7138094612337,1368.9797013998032,3124.1186278096857,930.0000000000026,2.800070001750044
113,3847.9222288012847,1394.7309575155377,3160.24247100775,930.0000000000026,2.8250706267656693
114,3922.9922717156383,1420.7613181509078,3196.571055767646,919.2142857142883,2.8500712517812947
115,3998.928862824174,1447.0722709819674,3233.1067404363002,919.2142857142883,2.87507187679692
116,4075.7369828415945,1473.6653233505785,3269.851926845219,908.428571428574,2.9000725018125455
117,4153.421669629255,1500.5420026108623,3306.809061398193,908.428571428574,2.925073126828171
118,4231.988019272997,1527.7038564160466,3343.9806361933074,897.6428571428596,2.9500737518437963
119,4311.4411871878265,1555.1524531207979,3381.369190180574,897.6428571428596,2.9750743768594217
120,4391.786389250324,1582.8893820904195,3418.9773103565344,886.8571428571453,3.000075001875047
121,4473.028902959661,1610.9162540659308,3456.8076329972578,886.8571428571453,3.0250756268906724
122,4555.174068628169,1639.2347015663981,3494.862844931217,876.0714285714309,3.050076251906298
123,4638.2272906024455,1667.8463792204857,3533.145684853594,876.0714285714309,3.075076876921923
124,4722.194038515966,1696.7529642097652,3571.6589446836433,865.2857142857166,3.1000775019375486
125,4807.079848574298,1725.956156656146,3610.4054709667985,865.2857142857166,3.125078126953174
126,4892.890324873977,1755.4576800093055,3649.3881663233137,854.5000000000023,3.1500787519687994
127,4979.63114075617,1785.2592815160751,3688.609990945288,854.5000000000023,3.1750793769844248
128,5067.308040196318,1815.362732641399,3728.0739641440236,843.7142857142879,3.20008000200005
129,5155.926839230985,1845.7698295228183,3767.7831659497565,843.7142857142879,3.2250806270156755
130,5245.493427423161,1876.4823934324086,3807.7407387658955,832.9285714285736,3.250081252031301
131,5336.013769367371,1907.5022712610662,3847.9498890800064,832.9285714285736,3.2750818770469263
132,5427.49390623595,1938.831336017698,3888.413889233889,822.1428571428593,3.3000825020625517
133,5519.939957367924,1970.4714873172343,3929.1360792552064,822.1428571428593,3.325083127078177
134,5613.358121901999,2002.424651928246,3970.1198687532437,811.3571428571449,3.3500837520938025
135,5707.754680455205,2034.6927842870355,4011.368738881513,811.3571428571449,3.375084377109428
136,5803.135996848826,2067.2778670713305,4052.8862443700323,800.5714285714306,3.4000850021250533
137,5899.508519883303,2100.181911755353,4094.6760156302753,800.5714285714306,3.4250856271406787
138,5996.878785163876,2133.4069592021406,4136.741760935918,789.7857142857163,3.450086252156304
139,6095.25341697881,2166.9550802744925,4179.087268682678,789.7857142857163,3.4750868771719294
140,6194.639130232111,2200.828376457095,4214.531419549682,780.7976190476211,3.500087502187555
141,6294.361550467413,2234.7969124242663,4214.194145164025,780.7976190476211,3.52508812720318
142,6394.081801930564,2268.745191615075,4213.857093362314,780.7976190476211,3.5500887522188056
143,6493.79749768174,2302.6724021472037,4213.318394283266,780.7976190476211,3.575089377234431
144,6593.506254510676,2336.5777339935303,4212.7801644886595,217.0,3.6000900022500564
145,6693.208080173777,2370.461191006005,4212.242403460401,217.0,3.6250906272656818
146,6792.9029824153895,2404.3227770254016,4211.705110681362,217.0,3.650091252281307
147,6892.5909689678165,2438.162495903671,4211.168285635379,217.0,3.6750918772969325
148,6992.272047551341,2471.9803514666855,4210.6319278072515,217.0,3.700092502312558
149,7091.946225874251,2505.7763475365937,4210.09603668274,217.0,3.7250931273281833
150,7191.613511632851,2539.5504879392684,4209.560611748567,217.0,3.7500937523438087
151,7291.273912511491,2573.302776478231,4209.025652492404,217.0,3.775094377359434
152,7390.92743618258,2607.0332169644535,4208.491158402887,217.0,3.8000950023750595
153,7490.5740903066135,2640.741813197732,4207.957128969599,217.0,3.825095627390685
154,7590.213882532186,2674.4285689629614,4207.423563683076,217.0,3.8500962524063103
155,7689.846820496021,2708.0934880524874,4206.890462034803,217.0,3.8750968774219356
156,7789.472911822982,2741.736574240029,4206.357823517213,217.0,3.900097502437561
157,7889.092164126098,2775.3578312955797,4205.825647623681,217.0,3.9250981274531864
158,7988.704585006583,2808.9572629854083,4205.293933848529,217.0,3.950098752468812
159,8088.310182053858,2842.5348730683327,4204.762681687019,217.0,3.975099377484437
160,8187.9089628455595,2876.0906652994454,4204.231890635351,217.0,4.000100002500063
161,8287.500934947588,2909.624643407762,4203.701560190664,217.0,4.025100627515688
162,8387.086105914086,2943.1368111521006,4203.171689851032,217.0,4.050101252531314
163,8486.664483287503,2976.6271722503006,4202.642279115463,217.0,4.075101877546939
164,8586.236074598579,3010.095730431378,4202.113327483895,217.0,4.100102502562565
165,8685.800887366382,3043.5424894094467,4201.584834457197,217.0,4.12510312757819
166,8785.358929098336,3076.9674528986216,4201.056799537166,217.0,4.150103752593815
167,8884.910207290215,3110.3706246092916,4200.529222226523,217.0,4.175104377609441
168,8984.45472942619,3143.752008225769,4200.002102028917,217.0,4.200105002625066
169,9083.99250297883,3177.111607450992,4199.475438448914,217.0,4.2251056276406915
170,9183.523535409135,3210.4494259655476,4198.949230992004,217.0,4.250106252656317
171,9283.04783416654,3243.7654674500227,4198.423479164593,217.0,4.275106877671942
172,9382.565406688953,3277.059735573828,4197.898182474004,217.0,4.300107502687568
173,9482.076260402762,3310.332234006375,4197.373340428475,217.0,4.325108127703193
174,9581.58040272286,3343.5829664058983,4196.848952537156,217.0,4.3501087527188185
175,9681.077841052665,3376.811936419457,4196.325018310107,217.0,4.375109377734444
176,9780.568582784135,3410.019147694111,4195.8015372582995,217.0,4.400110002750069
177,9880.05263529779,3443.204603869468,4195.278508893609,217.0,4.425110627765695
178,9979.530005962726,3476.3683085888624,4194.755932728817,217.0,4.45011125278132
179,10079.000702136658,3509.5102654621005,4194.23380827761,217.0,4.475111877796945
180,10178.464731165901,3542.630478117615,4193.712135054572,217.0,4.500112502812571
181,10277.922100385422,3575.7289501726627,4193.190912575191,217.0,4.525113127828196
182,10377.372817118845,3608.8056852295995,4192.67014035585,217.0,4.550113752843822
183,10476.816888678468,3641.860686890781,4192.149817913827,217.0,4.575114377859447
184,10576.254322365296,3674.893958751112,4191.629944767298,217.0,4.600115002875072
185,10675.685125469041,3707.9055043943226,4191.110520435326,217.0,4.625115627890698
186,10775.109305268157,3740.8953274078667,4190.591544437869,217.0,4.650116252906323
187,10874.526869029856,3773.8634313605726,4190.073016295769,217.0,4.6751168779219485
188,10973.93782401011,3806.809819832444,4189.5549355307585,217.0,4.700117502937574
189,11073.342177453704,3839.734496373683,4189.037301665454,217.0,4.725118127953199
190,11172.739936594224,3872.6374645493925,4188.520114223352,217.0,4.750118752968825
191,11272.131108654086,3905.5187279060483,4188.003372728835,217.0,4.77511937798445
192,11371.515700844566,3938.378289986402,4187.487076707161,217.0,4.8001200030000755
193,11470.893720365797,3971.216154333204,4186.971225684467,217.0,4.825120628015701
194,11570.265174406812,4004.0323244705796,4186.455819187768,217.0,4.850121253031326
195,11669.630070145542,4036.826803922653,4185.940856744948,217.0,4.875121878046952
196,11768.988414748845,4069.5995962247252,4185.426337884768,217.0,4.900122503062577
197,11868.340215372535,4102.3507048636675,4184.912262136857,217.0,4.925123128078202
198,11967.685479161373,4135.080133363605,4184.3986290317125,217.0,4.950123753093828
199,12067.024213249108,4167.787885222584,4183.885438100702,217.0,4.975124378109453
200,12166.356424758493,4200.473963931203,4183.372688876053,217.0,5.000125003125079
201,12265.682120801293,4233.138372980058,4182.860380890859,217.0,5.025125628140704
202,12365.001308478322,4265.781115848571,4182.348513679077,217.0,5.050126253156329
203,12464.313994879443,4298.402196012437,4181.837086775519,217.0,5.075126878171955
204,12563.620187083594,4331.001616939902,4181.32609971586,217.0,5.10012750318758
205,12662.919892158807,4363.579382091761,4180.81555203663,217.0,5.1251281282032055
206,12762.213117162226,4396.135494932532,4180.30544327521,217.0,5.150128753218831
207,12861.49986914012,4428.669958911836,4179.795772969836,217.0,5.175129378234456
208,12960.780155127917,4461.182777468115,4179.286540659599,217.0,5.200130003250082
209,13060.053982150203,4493.673954043537,4178.777745884432,217.0,5.225130628265707
210,13159.321357220753,4526.143492072821,4178.269388185121,217.0,5.2501312532813325
211,13258.582287342548,4558.591394975781,4177.761467103296,217.0,5.275131878296958
212,13357.836779507783,4591.017666183412,4177.25398218143,217.0,5.300132503312583
213,13457.084840697898,4623.422309100628,4176.74693296284,217.0,5.325133128328209
214,13556.326477883586,4655.805327147245,4176.240318991684,217.0,5.350133753343834
215,13655.561698024821,4688.166723713279,4175.7341398129565,217.0,5.375134378359459
216,13754.790508070875,4720.506502199918,4175.228394972492,217.0,5.400135003375085
217,13854.012914960318,4752.824666000903,4174.723084016959,217.0,5.42513562839071
218,13953.228925621062,4785.121218498796,4174.218206493859,217.0,5.450136253406336
