,distance,altitude,velocity,mass,time
0,0.0,0.0,0.0,1534.0,0.0
1,1.0495052169823833,0.341771200299263,44.202643246870394,1534.0,0.050002500125006254
2,4.207938139241167,1.3706949055194855,88.72281226088079,1512.4285714285713,0.10000500025001251
3,9.499519080475112,3.065426431596279,133.59401609536255,1512.4285714285713,0.15000750037501875
4,16.96300530707024,5.361664827913046,178.8140404218376,1490.8571428571427,0.20001000050002501
5,26.620917104634408,8.242272131145,224.37865888700435,1490.8571428571427,0.2500125006250313
6,38.494335910618894,11.694953795522451,270.2898225266946,1469.285714285714,0.3000150007500375
7,52.60357985332554,15.710424717515707,316.55048309822797,1469.285714285714,0.3500175008750438
8,68.96853642484922,20.28147491812706,363.16419888782326,1447.7142857142853,0.40002000100005003
9,87.60885719274778,25.402417492121458,410.13494176948564,1447.7142857142853,0.45002250112505626
10,108.54408207949349,31.068734973669052,457.46697174554447,1426.1428571428567,0.5000250012500626
11,131.7937214218906,37.27683845162392,505.16471423266427,1426.1428571428567,0.5500275013750688
12,157.37731541893817,44.02389678731561,553.232782120603,1404.571428571428,0.600030001500075
13,185.31447267756278,51.30770955607295,601.6756640913317,1404.571428571428,0.6500325016250813
14,215.6248888047606,59.12660813331604,650.4977112152079,1382.9999999999993,0.7000350017500876
15,248.3283694891697,67.47938135266304,699.7033718966242,1382.9999999999993,0.7500375018750938
16,283.44482110980624,76.36520970612764,749.2960132526111,1361.4285714285706,0.8000400020001001
17,320.9942383573318,85.78361145034432,799.2790270703482,1361.4285714285706,0.8500425021251063
18,360.9967132629959,95.73440361768007,849.6559941122815,1339.857142857142,0.9000450022501125
19,403.4724499425729,106.21767166256905,900.4296672891818,1339.857142857142,0.9500475023751188
20,448.44170353236217,117.23372598364949,951.6022179263045,1318.2857142857133,1.000050002500125
21,495.9247912477224,128.78308102488518,1003.1750117565651,1318.2857142857133,1.0500525026251313
22,545.9420271432731,140.86641931906343,1055.1490453943557,1296.7142857142846,1.1000550027501377
23,598.5137727286003,153.48458673804998,1107.527809493126,1296.7142857142846,1.1500575028751439
24,653.6609323797786,166.638696026057,1160.333417706171,1275.142857142856,1.20006000300015
25,711.4061484628462,180.3303959481418,1213.615698117272,1275.142857142856,1.2500625031251564
26,771.7735566499277,194.56179650872946,1267.3718183797193,1253.5714285714273,1.3000650032501626
27,834.7864796272247,209.33491099253297,1321.5895801148718,1253.5714285714273,1.3500675033751688
28,900.4681237994243,224.65181398019195,1376.2731872644006,1231.9999999999986,1.4000700035001752
29,968.8419776150997,240.51472752168775,1431.4304343459244,1231.9999999999986,1.4500725036251814
30,1039.9318919711818,256.9260325431824,1487.0683765890392,1210.42857142857,1.5000750037501875
31,1113.7620487209988,273.8882547914982,1543.1947027934254,1210.42857142857,1.550077503875194
32,1190.3570200706727,291.40407244861126,1599.8181750907415,1188.8571428571413,1.6000800040002001
33,1269.7418009868632,309.4763179756701,1656.947728368748,1188.8571428571413,1.6500825041252063
34,1351.9418103546204,328.1079731658101,1714.5924205936294,1167.2857142857126,1.7000850042502127
35,1436.9829067912892,347.30216805264354,1772.7616505295543,1167.2857142857126,1.7500875043752189
36,1524.8914042645333,367.0621801055968,1831.4649706186976,1145.714285714284,1.800090004500225
37,1615.694051376532,387.3914255797863,1890.7111347692144,1145.714285714284,1.8500925046252314
38,1709.4180431020895,408.29345854744315,1950.5101532138822,1124.1428571428553,1.9000950047502376
39,1806.0910683694792,429.77197813242674,2010.8724708926757,1124.1428571428553,1.9500975048752438
40,1905.741322987167,451.8308282084763,2071.808578999473,1102.5714285714266,2.00010000500025
41,2008.3975015565172,474.47399262338877,2133.328885007899,1102.5714285714266,2.0501025051252566
42,2114.0888236986334,497.7055982686579,2195.4447090169865,1080.999999999998,2.1001050052502626
43,2222.845067209251,521.5299197472632,2258.1677591771345,1080.999999999998,2.150107505375269
44,2334.696571529254,545.9513776935637,2321.509385929645,1059.4285714285693,2.2001100055002754
45,2449.674229638232,570.9745346978307,2385.4814506294474,1059.4285714285693,2.2501125056252813
46,2567.8095358106207,596.6041035503149,2450.0967145844816,1037.8571428571406,2.3001150057502877
47,2689.13461430225,622.8449513912201,2515.3683703898714,1037.8571428571406,2.350117505875294
48,2813.6822413214377,649.7021025009453,2581.3100618259946,1016.2857142857121,2.4001200060003
49,2941.485867982413,677.1807412803173,2647.935904933879,1016.2857142857121,2.4501225061253065
50,3072.5796443027853,705.2862156666815,2715.2603591826996,994.7142857142835,2.500125006250313
51,3206.9983785902796,734.0240266434848,2783.295706237837,994.7142857142835,2.550127506375319
52,3344.7774900729983,763.3998165912926,2852.055738560547,973.142857142855,2.600130006500325
53,3485.9531271929286,793.419393081218,2921.556070823789,973.142857142855,2.6501325066253316
54,3630.562213050849,824.0887370221317,2991.8128621954916,951.5714285714264,2.7001350067503376
55,3778.642472958236,855.4140070527792,3062.8428423317805,951.5714285714264,2.750137506875344
56,3930.2324632905984,887.4015441983938,3134.663338955439,929.9999999999978,2.8001400070003504
57,4085.3716017238116,920.0578768402338,3207.2923071361215,929.9999999999978,2.8501425071253563
58,4244.1001989408405,953.389726061374,3280.748360399037,908.4285714285693,2.9001450072503627
59,4406.459491902725,987.4040112830698,3355.050803800062,908.4285714285693,2.950147507375369
60,4572.491678784631,1022.1078563220799,3430.2196691176136,886.8571428571407,3.000150007500375
61,4742.23995568548,1057.5085957497358,3506.275752325249,886.8571428571407,3.0501525076253815
62,4915.748555227953,1093.613781746477,3583.24065352404,865.2857142857122,3.100155007750388
63,5093.062787174895,1130.4311912879348,3661.136819530432,865.2857142857122,3.150157507875394
64,5274.229081198015,1167.9688338562846,3739.9875893337494,843.7142857142836,3.2001600080004002
65,5459.295031945914,1206.2349595464766,3819.8172426579754,843.7142857142836,3.2501625081254066
66,5648.309446570324,1245.2380677461624,3900.651051885155,822.1428571428551,3.3001650082504126
67,5841.322394882766,1284.9869163036346,3982.51533762302,822.1428571428551,3.350167508375419
68,6038.385262328292,1325.4905312731862,4065.4375282275787,800.5714285714265,3.4001700085004254
69,6239.55080597898,1366.758217267692,4149.4462236227655,800.5714285714265,3.4501725086254313
70,6444.873213767427,1408.7995684742928,4220.2084415460895,782.595238095236,3.5001750087504377
71,6651.584628512318,1451.0471159033477,4219.726564785283,782.595238095236,3.550177508875444
72,6858.287385079921,1493.2146866172552,4219.245488369517,782.595238095236,3.60018000900045
73,7064.971351564296,1535.3002196103334,4218.351201196932,782.595238095236,3.6501825091254565
74,7271.626416945009,1577.301662940532,4217.458379699064,217.0,3.700185009250463
75,7478.252624566328,1619.219035435468,4216.567021246461,217.0,3.750187509375469
76,7684.850017642175,1661.052355851978,4215.677123217793,217.0,3.8001900095004753
77,7891.418639256494,1702.8016428984702,4214.788682999814,217.0,3.8501925096254817
78,8097.95853236362,1744.4669152349234,4213.901697987335,217.0,3.9001950097504876
79,8304.46973978865,1786.0481914579868,4213.016165583187,217.0,3.950197509875494
80,8510.952304227812,1827.545490104705,4212.1320831981975,217.0,4.0002000100005
81,8717.406268248826,1868.9588296711445,4211.249448251152,217.0,4.050202510125507
82,8923.83167429127,1910.2882285825908,4210.368258168762,217.0,4.100205010250513
83,9130.228564666948,1951.5337052308023,4209.48851038564,217.0,4.150207510375519
84,9336.59698156024,1992.695277929306,4208.6102023442645,217.0,4.200210010500525
85,9542.936967028474,2033.7729649618268,4207.733331494944,217.0,4.2502125106255315
86,9749.24856300229,2074.766784530133,4206.857895295795,217.0,4.300215010750538
87,9955.53181128597,2115.676754809916,4205.983891212707,217.0,4.350217510875544
88,10161.786753557824,2156.502893909812,4205.111316719312,217.0,4.400220011000551
89,10368.013431370533,2197.245219886303,4204.240169296949,217.0,4.450222511125556
90,10574.211886151505,2237.9037507474422,4203.370446434644,217.0,4.500225011250563
91,10780.382159203218,2278.4785044416785,4202.5021456290715,217.0,4.550227511375569
92,10986.524291703585,2318.969498872757,4201.635264384526,217.0,4.600230011500575
93,11192.638324706297,2359.376751884818,4200.769800212891,217.0,4.650232511625582
94,11398.724299141175,2399.7002812698483,4199.905750633614,217.0,4.700235011750588
95,11604.782255814505,2439.9401047751307,4199.04311317367,217.0,4.750237511875594
96,11810.812235409396,2480.096240092069,4198.181885367535,217.0,4.8002400120006
97,12016.814278486125,2520.168704856187,4197.322064757155,217.0,4.8502425121256065
98,12222.78842548247,2560.1575166657567,4196.4636488919205,217.0,4.900245012250613
99,12428.734716714062,2600.0626930482686,4195.606635328631,217.0,4.950247512375619
100,12634.653192374722,2639.8842514939606,4194.751021631468,217.0,5.000250012500626
101,12840.543892536798,2679.622209440917,4193.896805371967,217.0,5.050252512625631
102,13046.406857151505,2719.2765842676163,4193.043984128991,217.0,5.100255012750638
103,13252.242126049263,2758.8473933152854,4192.192555488692,217.0,5.150257512875644
104,13458.049738940028,2798.3346538618207,4191.3425170444925,217.0,5.20026001300065
105,13663.829735413634,2837.7383831478655,4190.493866397051,217.0,5.250262513125657
106,13869.582154940119,2877.058598354459,4189.646601154235,217.0,5.300265013250663
107,14075.307036870056,2916.295316617936,4188.800718931093,217.0,5.350267513375669
108,14281.004420434896,2955.448555022478,4187.9562173498225,217.0,5.400270013500675
109,14486.674344747278,2994.518330603838,4187.113094039746,217.0,5.4502725136256815
110,14692.316848801373,3033.5046603530645,4186.271346637283,217.0,5.500275013750688
111,14897.9319714732,3072.4075612053275,4185.430972785918,217.0,5.550277513875694
112,15103.519751520966,3111.2270500436425,4184.591970136174,217.0,5.600280014000701
113,15309.08022758537,3149.963143721223,4183.754336345585,217.0,5.650282514125706
114,15514.613438189941,3188.6158590205014,4182.9180690786725,217.0,5.700285014250713
115,15720.119421741356,3227.1852126941085,4182.083166006906,217.0,5.750287514375719
116,15925.598216529763,3265.6712214313447,4181.24962480869,217.0,5.8002900145007255
117,16131.049860729094,3304.073901887983,4180.417443169323,217.0,5.850292514625732
118,16336.47439239739,3342.3932706564665,4179.586618780983,217.0,5.900295014750738
119,16541.871849477116,3380.6293442994356,4178.75714934269,217.0,5.950297514875744
120,16747.242269795475,3418.782139312476,4177.929032560282,217.0,6.00030001500075
121,16952.585691064724,3456.8516721613705,4177.102266146392,217.0,6.050302515125757
122,17157.902150882488,3494.8379592634737,4176.276847820414,217.0,6.100305015250763
123,17363.19168673208,3532.7410169765353,4175.452775308482,217.0,6.150307515375769
124,17568.45433598279,3570.560861621052,4174.630046343439,217.0,6.200310015500776
125,17773.690135890218,3608.297509469092,4173.808658664812,217.0,6.250312515625781
126,17978.89912359658,3645.9509767480195,4172.98861001879,217.0,6.300315015750788
127,18184.081336131003,3683.521279644221,4172.169898158186,217.0,6.350317515875794
128,18389.236810409835,3721.008434280753,4171.352520842424,217.0,6.4003200160008005
129,18594.365583236973,3758.4124567583203,4170.5364758375035,217.0,6.450322516125807
130,18799.467691304122,3795.733363106847,4169.721760915978,217.0,6.500325016250813
131,19004.543171191144,3832.9711693376303,4168.908373856925,217.0,6.55032751637582
132,19209.59205936634,3870.1258913986385,4168.096312445923,217.0,6.600330016500825
133,19414.61439218674,3907.197545196861,4167.285574475029,217.0,6.650332516625832
134,19619.61020589843,3944.186146594584,4166.476157742742,217.0,6.700335016750838
135,19824.579536636822,3981.0917114131153,4165.668060053987,217.0,6.750337516875844
136,20029.52242042698,4017.9142554178834,4164.861279220087,217.0,6.800340017000851
137,20234.43889318388,4054.653794351965,4164.055813058738,217.0,6.850342517125857
138,20439.328990712747,4091.3103438951075,4163.251659393979,217.0,6.900345017250863
139,20644.19274870932,4127.883919686079,4162.448816056172,217.0,6.950347517375869
140,20849.030202760154,4164.37453732267,4161.647280881977,217.0,7.0003500175008755
141,21053.842303826084,4200.782212365419,4160.8470517143205,217.0,7.050352517625882
142,21258.6272808875,4237.106960315257,4160.048126402378,217.0,7.100355017750888
143,21463.38605917107,4273.348796650767,4159.250502801546,217.0,7.150357517875895
144,21668.118683122615,4309.5077367872,4158.454178773413,217.0,7.2003600180009
145,21872.82517104132,4345.583796110004,4157.659152185745,217.0,7.250362518125907
146,22077.505569010897,4381.576989952475,4156.865420912451,217.0,7.300365018250913
147,22282.159916977318,4417.4873336181045,4156.072982833562,217.0,7.350367518375919
148,22486.78823393225,4453.3148423582315,4155.281835835207,217.0,7.400370018500926
149,22691.390565876194,4489.059531379491,4154.491977809589,217.0,7.450372518625932
150,22895.966946486536,4524.721415851265,4153.70340665496,217.0,7.500375018750938
151,23100.517403961636,4560.300510901958,4152.916120275598,217.0,7.550377518875944
152,23305.04197998981,4595.796831615269,4152.130116581776,217.0,7.6003800190009505
153,23509.540702346425,4631.210393037647,4151.345393489751,217.0,7.650382519125957
154,23714.013610034406,4666.541210170835,4150.561948921727,217.0,7.700385019250963
155,23918.46073658439,4701.7892979718745,4149.779780805842,217.0,7.75038751937597
156,24122.882112297357,4736.954671364278,4148.998887076134,217.0,7.800390019500975
157,24327.277772354522,4772.037345223129,4148.219265672527,217.0,7.850392519625982
158,24531.647750683795,4807.037334378809,4147.4409145408,217.0,7.900395019750988
159,24735.992083932993,4841.954653639346,4146.663831632567,217.0,7.950397519875994
160,24940.310803580876,4876.789317756891,4145.888014905252,217.0,8.000400020001
161,25144.603941933514,4911.541341442615,4145.11346232207,217.0,8.050402520126006
162,25348.871530178185,4946.210739377886,4144.340171851997,217.0,8.100405020251014
163,25553.113609815373,4980.797526195645,4143.568141469751,217.0,8.15040752037602
164,25757.330205891234,5015.301716487855,4142.797369155771,217.0,8.200410020501026
165,25961.521348192822,5049.723324812949,4142.027852896187,217.0,8.250412520626032
166,26165.687080330463,5084.062365684658,4141.259590682805,217.0,8.300415020751037
167,26369.827427938937,5118.318853579462,4140.492580513075,217.0,8.350417520876045
168,26573.9424285672,5152.492802936584,4139.726820390083,217.0,8.40042002100105
169,26778.03210949231,5186.584228150547,4138.96230832251,217.0,8.450422521126058
170,26982.096504284156,5220.593143578619,4138.199042324623,217.0,8.500425021251063
171,27186.135645434213,5254.519563548267,4137.437020416249,217.0,8.550427521376069
172,27390.14956970766,5288.363502334803,4136.676240622749,217.0,8.600430021501076
173,27594.13830392602,5322.124974176288,4135.916700974999,217.0,8.650432521626081
174,27798.101882777977,5355.803993280977,4135.158399509369,217.0,8.700435021751089
175,28002.040334678208,5389.40057381615,4134.401334267697,217.0,8.750437521876094
176,28205.95369574924,5422.914729908109,4133.645503297269,217.0,8.800440022001101
177,28409.841994182083,5456.3464756421745,4132.890904650798,217.0,8.850442522126107
178,28613.705267467514,5489.695825077593,4132.137536386399,217.0,8.900445022251112
179,28817.543538507463,5522.9627922177315,4131.385396567573,217.0,8.95044752237612
180,29021.356846206243,5556.147391047329,4130.634483263177,217.0,9.000450022501125
181,29225.14522002208,5589.249635498971,4129.884794547408,217.0,9.050452522626133
182,29428.90868688604,5622.269539482892,4129.136328499782,217.0,9.100455022751138
183,29632.647286018197,5655.207116853446,4128.38908320511,217.0,9.150457522876144
184,29836.36103925138,5688.062381442636,4127.643056753474,217.0,9.20046002300115
185,30040.049988751372,5720.835347041488,4126.898247240213,217.0,9.250462523126156
186,30243.71415143461,5753.526027403772,4126.154652765894,217.0,9.300465023251164
187,30447.353569188817,5786.134436242282,4125.4122714362975,217.0,9.35046752337617
188,30650.968268488927,5818.660587243736,4124.671101362389,217.0,9.400470023501176
189,30854.558278195193,5851.104494050145,4123.931140660305,217.0,9.450472523626182
190,31058.123634159572,5883.466170269996,4123.192387451329,217.0,9.500475023751187
191,31261.664361934218,5915.745629470795,4122.454839861869,217.0,9.550477523876195
192,31465.180495599874,5947.942885197699,4121.71849602344,217.0,9.6004800240012
193,31668.672063709924,5980.057950943708,4120.98335407264,217.0,9.650482524126208
194,31872.139090988672,6012.090840183198,4120.249412151131,217.0,9.700485024251213
195,32075.581615084087,6044.041566334665,4119.516668405619,217.0,9.75048752437622
196,32278.999662122544,6075.910142801702,4118.785120987833,217.0,9.800490024501226
197,32482.393266478568,6107.6965829357505,4118.054768054502,217.0,9.850492524626231
198,32685.76244974677,6139.400900065899,4117.325607767338,217.0,9.900495024751239
199,32889.10725062755,6171.023107483983,4116.597638293015,217.0,9.950497524876244
200,33092.42768923072,6202.563218437135,4115.870857803147,217.0,10.000500025001251
201,33295.723804056135,6234.021246150136,4115.14526447427,217.0,10.050502525126257
202,33498.99561958709,6265.397203803062,4114.420856487821,217.0,10.100505025251262
203,33702.243163980536,6296.691104557365,4113.697632030116,217.0,10.15050752537627
204,33905.46646895715,6327.902961522341,4112.975589292333,217.0,10.200510025501275
205,34108.66556258645,6359.032787781209,4112.254726470492,217.0,10.250512525626283
206,34311.84047504856,6390.080596379936,4111.535041765431,217.0,10.300515025751288
207,34514.99123435716,6421.046400338411,4110.816533382794,217.0,10.350517525876295
208,34718.1178706136,6451.930212639272,4110.0991995330005,217.0,10.4005200260013
209,34921.22040761403,6482.732046224177,4109.383038431239,217.0,10.450522526126306
210,35124.29888236157,6513.451914012432,4108.668048297434,217.0,10.500525026251314
211,35327.35331448634,6544.089828886092,4107.954227356237,217.0,10.55052752637632
212,35530.38373677006,6574.645803682506,4107.241573837004,217.0,10.600530026501326
213,35733.39017848676,6605.119851231575,4106.530085973769,217.0,10.650532526626332
214,35936.37266550206,6635.511984303594,4105.819762005239,217.0,10.700535026751337
215,36139.331228420524,6665.822215650231,4105.110600174759,217.0,10.750537526876345
216,36342.26589444703,6696.050557993352,4104.402598730307,217.0,10.80054002700135
217,36545.17669146238,6726.197024010122,4103.695755924464,217.0,10.850542527126358
218,36748.06364668511,6756.26162635535,4102.990070014402,217.0,10.900545027251363
219,36950.9267880023,6786.244377646595,4102.285539261861,217.0,10.95054752737637
220,37153.766143951536,6816.145290475339,4101.582161933133,217.0,11.000550027501376
221,37356.58173980879,6845.964377392083,4100.87993629904,217.0,11.050552527626381
222,37559.373606714966,6875.701650921255,4100.17886063492,217.0,11.100555027751389
223,37762.14176996036,6905.357123553753,4099.4789332206,217.0,11.150557527876394
224,37964.8862580828,6934.930807750672,4098.78015234039,217.0,11.200560028001401
225,38167.60709388733,6964.422715943307,4098.082516283051,217.0,11.250562528126407
226,38370.30431355613,6993.8328605256975,4097.386023341784,217.0,11.300565028251413
227,38572.97793738058,7023.161253858358,4096.690671814213,217.0,11.35056752837642
228,38775.62799268883,7052.407908283174,4095.9964600023613,217.0,11.400570028501425
229,38978.254506198035,7081.57283610478,4095.3033862126367,217.0,11.450572528626433
230,39180.85750774349,7110.6560495868325,4094.611448755812,217.0,11.500575028751438
