,distance,altitude,velocity,mass,time
0,0.0,0.0,0.0,1534.0,0.0
1,0.23120773636003844,0.14589721709489822,21.884431048376534,1534.0,0.025000625015625392
2,0.9259190013256537,0.5843228027224541,43.84770841858517,1523.2142857142858,0.050001250031250784
3,2.085774278559981,1.3163833804428577,65.89037617657205,1523.2142857142858,0.07500187504687618
4,3.712425335087749,2.3431932739913464,88.01478787614349,1512.4285714285716,0.10000250006250157
5,5.814341076254609,3.6554136350750923,110.23161344319473,1512.4285714285716,0.12500312507812697
6,8.3982224392204,5.24634188786149,132.53379674934544,1501.6428571428573,0.15000375009375236
7,11.467496800409405,7.114293985068798,154.92120197350394,1501.6428571428573,0.17500437510937775
8,15.02533957502576,9.25799398496747,177.39389777169103,1490.8571428571431,0.20000500012500314
9,19.074747448478497,11.676466163247824,199.95208244000847,1490.8571428571431,0.22500562514062852
10,23.618585102319575,14.368965614587069,222.59604258646138,1480.071428571429,0.25000625015625394
11,28.65961686812376,17.334930889308453,245.32612840956324,1480.071428571429,0.27500687517187933
12,34.20052917289223,20.573950219899416,268.14273799524204,1469.2857142857147,0.3000075001875047
13,40.243947039998396,24.085736602544785,291.0463068638813,1469.2857142857147,0.3250081252031301
14,46.79244658143195,27.870108880102634,314.03730074629874,1458.5000000000005,0.3500087502187555
15,53.848564688915786,31.926977034658194,337.116210436065,1458.5000000000005,0.3750093752343809
16,61.41480670905695,36.25633052736521,360.2835480272472,1447.7142857142862,0.40001000025000627
17,69.4936526309975,40.85822895169258,383.5398441058494,1447.7142857142862,0.42501062526563166
18,78.08756215284265,45.73279431834817,406.88564561552295,1436.928571428572,0.45001125028125705
19,87.19897888721222,50.88020475581288,430.3215137495518,1436.928571428572,0.47501187529688244
20,96.83033376100408,56.30068912357092,453.84800857611316,1426.1428571428578,0.5000125003125079
21,106.98404775313588,61.994522366672754,477.465702746116,1426.1428571428578,0.5250131253281333
22,117.6625346711786,67.96202185750008,501.17518894734667,1415.3571428571436,0.5500137503437587
23,128.86820343280382,74.20354412123561,524.9770676604708,1415.3571428571436,0.575014375359384
24,140.60345957854534,80.71948178112507,548.871913982735,1404.5714285714294,0.6000150003750094
25,152.87070664196128,87.51026093959808,572.860320008618,1404.5714285714294,0.6250156253906348
26,165.67234687570578,94.5763385668397,596.942804948585,1393.7857142857151,0.6500162504062602
27,179.01078213050863,101.91820038110018,621.119948273069,1393.7857142857151,0.6750168754218856
28,192.88841534393123,109.53635935485363,645.3922992906097,1383.000000000001,0.700017500437511
29,207.3076515491943,117.43135417625308,669.7604566887047,1383.000000000001,0.7250181254531364
30,222.27089870642288,125.60374788567424,694.2249145824995,1372.2142857142867,0.7500187504687618
31,237.78056426323764,134.05412431806326,718.7860191482636,1372.2142857142867,0.7750193754843872
32,253.8390572925009,142.78308780118823,743.4443121416107,1361.4285714285725,0.8000200005000125
33,270.4487899892782,151.7912626489997,768.2001726327951,1361.4285714285725,0.8250206255156379
34,287.6121743388751,161.07929009571671,793.0539617254473,1350.6428571428582,0.8500212505312633
35,305.33162589147327,170.64782928675413,818.0062088796737,1350.6428571428582,0.8750218755468887
36,323.6095654937449,180.49755718931556,843.0574292153001,1339.857142857144,0.9000225005625141
37,342.4484190975025,190.62916754931211,868.2080522045668,1339.857142857144,0.9250231255781395
38,361.85060990294875,201.04336586222053,893.4579618633767,1329.0714285714298,0.9500237505937649
39,381.8185589714277,211.7408689148724,918.8076355668251,1329.0714285714298,0.9750243756093903
40,402.3546941832075,222.72240889817476,944.257554258179,1318.2857142857156,1.0000250006250158
41,423.46144555232024,233.9887302517891,969.8077550570122,1318.2857142857156,1.0250256256406411
42,445.1412356752444,245.54058395326138,995.4581578286997,1307.5000000000014,1.0500262506562665
43,467.3964862081164,257.3787304498255,1021.2090344658525,1307.5000000000014,1.075026875671892
44,490.22962076262627,269.5039406940341,1047.060643738217,1296.7142857142871,1.1000275006875173
45,513.6430647030037,281.9169955328107,1073.013225634652,1296.7142857142871,1.1250281257031427
46,537.6392515040559,294.6186886616051,1099.0680999039694,1285.928571428573,1.150028750718768
47,562.2206701855642,307.6098512634635,1125.228693403553,1285.928571428573,1.1750293757343935
48,587.3898736830381,320.891355920583,1151.4978801350276,1275.1428571428587,1.2000300007500189
49,613.1495169943116,334.46413622424006,1177.8836724161588,1275.1428571428587,1.2250306257656443
50,639.5024909189502,348.3292566165328,1204.3961396294885,1264.3571428571445,1.2500312507812696
51,666.4516967247567,362.48779317736626,1231.026994660371,1264.3571428571445,1.275031875796895
52,693.9998957164963,376.9407542645931,1257.7744264888274,1253.5714285714303,1.3000325008125204
53,722.1498205509411,391.6891389489174,1284.6371589530656,1253.5714285714303,1.3250331258281458
54,750.9041984290686,406.7339489981532,1311.6160419891175,1242.785714285716,1.3500337508437712
55,780.2657699456272,422.0761984959245,1338.7114188313594,1242.785714285716,1.3750343758593966
56,810.2372822468423,437.71691005304456,1365.923992130495,1232.0000000000018,1.400035000875022
57,840.821503682217,453.6571221984923,1393.2549946694492,1232.0000000000018,1.4250356258906474
58,872.0212262206455,469.8978904373944,1420.705474844096,1221.2142857142876,1.4500362509062728
59,903.8392605881384,486.4402844905853,1448.2762031723646,1221.2142857142876,1.4750368759218981
60,936.2784319807305,503.28538586199284,1475.968011263022,1210.4285714285734,1.5000375009375235
61,969.3415854487972,520.4342904388905,1503.7819414286737,1210.4285714285734,1.525038125953149
62,1003.0315877205451,537.8881092742085,1531.7190519701949,1199.6428571428592,1.5500387509687743
63,1037.351327634726,555.6479686163366,1559.7804256979916,1199.6428571428592,1.5750393759843997
64,1072.3037180797419,573.7150107398629,1587.9672825638922,1188.857142857145,1.600040001000025
65,1107.8916964723483,592.0903940424323,1616.2807028642248,1188.857142857145,1.6250406260156505
66,1144.1182228206872,610.7752918712795,1644.721803577228,1178.0714285714307,1.6500412510312759
67,1180.9862811351243,629.7708931080997,1673.2917357264066,1178.0714285714307,1.6750418760469012
68,1218.498879944465,649.0784022957087,1701.9916687291543,1167.2857142857165,1.7000425010625266
69,1256.6590527658743,668.6990397460759,1730.8227907843846,1167.2857142857165,1.725043126078152
70,1295.469858581296,688.6340416297317,1759.786309270998,1156.5000000000023,1.7500437510937774
71,1334.9343823207562,708.8846601247787,1788.8834511574876,1156.5000000000023,1.7750443761094028
72,1375.0557350906283,729.4521634057164,1818.1154041012164,1145.714285714288,1.8000450011250282
73,1415.837050636134,750.3378336951137,1847.4831525477312,1145.714285714288,1.8250456261406536
74,1457.2814862665123,771.5429676510394,1876.9879335988176,1134.9285714285738,1.850046251156279
75,1499.3922265995939,793.0688781738281,1906.6310272480105,1134.9285714285738,1.8750468761719044
76,1542.1724840562713,814.9168945476413,1936.413733992719,1124.1428571428596,1.9000475011875297
77,1585.6254993631644,837.0883625969291,1966.3373752733955,1124.1428571428596,1.9250481262031551
78,1629.7545420638346,859.584644857794,1996.4032939248373,1113.3571428571454,1.9500487512187805
79,1674.5629110389007,882.4071207381785,2026.6128533159242,1113.3571428571454,1.975049376234406
80,1720.0539340235016,905.5571861900389,2056.967314080097,1102.5714285714312,2.0000500012500315
81,1766.2309655097165,929.0362525507808,2087.4679597545,1102.5714285714312,2.025050626265657
82,1813.097389739318,952.8457479700446,2118.1162051842975,1091.785714285717,2.0500512512812823
83,1860.656622048484,976.9871180467308,2148.9134882684107,1091.785714285717,2.0750518762969077
84,1908.9121094198028,1001.4618259817362,2179.8612704647117,1081.0000000000027,2.100052501312533
85,1957.8673310447873,1026.271352827549,2210.9610373093046,1081.0000000000027,2.1250531263281585
86,2007.5257988972803,1051.4171976670623,2242.2142989503373,1070.2142857142885,2.150053751343784
87,2057.8910577803026,1076.9008775949478,2273.6225036183782,1070.2142857142885,2.1750543763594092
88,2108.96668229345,1102.7239260934293,2305.1869860606857,1059.4285714285743,2.2000550013750346
89,2160.756278760359,1128.8878939412534,2336.9092971206733,1059.4285714285743,2.22505562639066
90,2213.2634881786985,1155.3943506516516,2368.7910274230253,1048.64285714286,2.2500562514062854
91,2266.4919868318534,1182.2448846921325,2400.833794113149,1048.64285714286,2.275056876421911
92,2320.4454869131328,1209.441103771329,2433.039241453965,1037.8571428571458,2.300057501437536
93,2375.1277371629144,1236.9846350587904,2465.409041439646,1037.8571428571458,2.3250581264531616
94,2430.5425235191447,1264.8771254643798,2497.944894426892,1027.0714285714316,2.350058751468787
95,2486.69366978162,1293.120241932571,2530.648529784323,1027.0714285714316,2.3750593764844123
96,2543.585038290503,1321.7156716920435,2563.5217065605975,1016.2857142857173,2.4000600015000377
97,2601.2205306195106,1350.6651225797832,2596.5662141719067,1016.2857142857173,2.425060626515663
98,2659.604088284272,1379.970323305577,2629.783873109491,1005.500000000003,2.4500612515312885
99,2718.7396934663066,1409.6330237872899,2663.176535667884,1005.500000000003,2.475061876546914
100,2778.6313697531386,1439.6549954637885,2696.746086694597,994.7142857142886,2.5000625015625393
101,2839.2831799656105,1470.0380301363766,2730.494027987026,994.7142857142886,2.5250631265781647
102,2900.699214907028,1500.783934313804,2764.421667009693,983.9285714285743,2.55006375159379
103,2962.883602041064,1531.8945334888995,2798.5309012665402,983.9285714285743,2.5750643766094155
104,3025.840511781696,1563.3716752566397,2832.8236815654695,973.14285714286,2.600065001625041
105,3089.574158256018,1595.2172296531498,2867.301992379553,973.14285714286,2.6250656266406662
106,3154.0888000841246,1627.433089479804,2901.9678526337893,962.3571428571456,2.6500662516562916
107,3219.3887411765954,1660.021170668304,2936.8233165150423,962.3571428571456,2.675066876671917
108,3285.4783315501136,1692.983412642032,2971.8704743059843,951.5714285714313,2.7000675016875424
109,3352.3619681618065,1726.3217786811292,3007.1114532438814,951.5714285714313,2.725068126703168
110,3420.044095762871,1760.038256302476,3042.54841840512,940.785714285717,2.750068751718793
111,3488.5292077720974,1794.1348576508462,3078.183573616392,940.785714285717,2.7750693767344186
112,3557.821847169907,1828.613619916141,3114.0191623934948,930.0000000000026,2.800070001750044
113,3627.9266074135644,1863.476605720818,3150.057468908765,930.0000000000026,2.8250706267656693
114,3698.848133374214,1898.7259035632014,3186.3008189881725,919.2142857142883,2.8500712517812947
115,3770.5911222964396,1934.3636282533407,3222.7515811391872,919.2142857142883,2.87507187679692
116,3843.1603247810767,1970.3919213339686,3259.4121676105365,908.428571428574,2.9000725018125455
117,3916.560545791985,2006.81295157969,3296.285035485059,908.428571428574,2.925073126828171
118,3990.7966456875947,2043.6289154291153,3333.3726878068846,897.6428571428596,2.9500737518437963
119,4065.8735412779824,2080.8420375064015,3370.677674744241,897.6428571428596,2.9750743768594217
120,4141.79620690833,2118.4545710869133,3408.2025947892357,886.8571428571453,3.000075001875047
121,4218.569675569613,2156.468798622489,3445.9500959960337,886.8571428571453,3.0250756268906724
122,4296.19904003741,2194.8870322667062,3483.922877258897,876.0714285714309,3.050076251906298
123,4374.689454039753,2233.7116144225,3522.1236896316404,876.0714285714309,3.075076876921923
124,4454.046133454978,2272.9449182786047,3560.5553376901094,865.2857142857166,3.1000775019375486
125,4534.274357540583,2312.589348386973,3599.2206809393733,865.2857142857166,3.125078126953174
126,4615.3794701941015,2352.647341258824,3638.1226352673957,854.5000000000023,3.1500787519687994
127,4697.366881247093,2393.1213659495115,3677.264174447032,854.5000000000023,3.1750793769844248
128,4780.242067793355,2434.0139246806502,3716.648331688285,843.7142857142879,3.20008000200005
129,4864.010575552504,2475.3275534920394,3756.278201242847,843.7142857142879,3.2250806270156755
130,4948.678020270163,2517.0648228749633,3796.156940063047,832.9285714285736,3.250081252031301
131,5034.250089155987,2559.2283384613693,3836.2877695174243,832.9285714285736,3.2750818770469263
132,5120.732542360845,2601.8207416906953,3876.673977165258,822.1428571428593,3.3000825020625517
133,5208.1312144945105,2644.8447105549276,3917.3189185924894,822.1428571428593,3.325083127078177
134,5296.452016185286,2688.3029603026807,3958.226019311604,811.3571428571449,3.3500837520938025
135,5385.700935683031,2732.1982442066073,3999.3987767281474,811.3571428571449,3.375084377109428
136,5475.884040507148,2776.5333543270826,4040.8407621767037,800.5714285714306,3.4000850021250533
137,5567.007479141087,2821.3111223243177,4082.555623029279,800.5714285714306,3.4250856271406787
138,5659.077482775094,2866.534420259297,4124.547084879212,789.7857142857163,3.450086252156304
139,5752.100367098898,2912.2061614505947,4166.8189538038505,789.7857142857163,3.4750868771719294
140,5846.082534146187,2958.3293013498187,4202.186776177575,780.7976190476211,3.500087502187555
141,5940.384121785421,3004.589728180319,4201.756750404299,780.7976190476211,3.52508812720318
142,6034.683589602934,3050.82964258641,4201.326963274761,780.7976190476211,3.5500887522188056
143,6128.978736481458,3097.0479659438133,4200.70109983304,780.7976190476211,3.575089377234431
144,6223.267365871636,3143.243622440845,4200.075794009555,217.0,3.6000900022500564
145,6317.549487280635,3189.416617896408,4199.451045042844,217.0,3.6250906272656818
146,6411.825110199208,3235.566958140582,4198.826852173032,217.0,3.650091252281307
147,6506.09424410173,3281.694648977369,4198.203214641823,217.0,3.6750918772969325
148,6600.356898446223,3327.799696214497,4197.580131692493,217.0,3.700092502312558
149,6694.613082674395,3373.8821056373417,4196.9576025698925,217.0,3.7250931273281833
150,6788.862806211669,3419.9418830163777,4196.335626520443,217.0,3.7500937523438087
151,6883.106078467212,3465.979034114629,4195.714202792127,217.0,3.775094377359434
152,6977.342908833963,3511.9935646876693,4195.093330634492,217.0,3.8000950023750595
153,7071.573306688674,3557.985480476171,4194.473009298641,217.0,3.825095627390685
154,7165.797281391935,3603.9547872059047,4193.853238037234,217.0,3.8500962524063103
155,7260.014842288203,3649.9014906063676,4193.234016104481,217.0,3.8750968774219356
156,7354.225998705835,3695.825596369803,4192.61534275614,217.0,3.900097502437561
157,7448.430759957125,3741.727110195905,4191.997217249514,217.0,3.9250981274531864
158,7542.6291353383185,3787.606037773192,4191.379638843446,217.0,3.950098752468812
159,7636.821134129666,3833.462384764105,4190.762606798316,217.0,3.975099377484437
160,7731.00676559543,3879.2961568422616,4190.146120376039,217.0,4.000100002500063
161,7825.186038983934,3925.107359647751,4189.530178840062,217.0,4.025100627515688
162,7919.358963527581,3970.895998828113,4188.914781455355,217.0,4.050101252531314
163,8013.525548442897,4016.6620799973607,4188.299927488418,217.0,4.075101877546939
164,8107.685802930544,4062.4056087844074,4187.6856162072645,217.0,4.100102502562565
165,8201.839736175363,4108.126590788364,4187.071846881431,217.0,4.12510312757819
166,8295.987357346403,4153.8250316008925,4186.458618781963,217.0,4.150103752593815
167,8390.128675596945,4199.500936806202,4185.84593118142,217.0,4.175104377609441
168,8484.263700064543,4245.154311981052,4185.233783353867,217.0,4.200105002625066
169,8578.392439871033,4290.7851626724005,4184.622174574871,217.0,4.2251056276406915
170,8672.514904122596,4336.393494445831,4184.011104121501,217.0,4.250106252656317
171,8766.631101909752,4381.979312829673,4183.400571272325,217.0,4.275106877671942
172,8860.741042307418,4427.542623348534,4182.7905753074,217.0,4.300107502687568
173,8954.84473437492,4473.083431523293,4182.181115508276,217.0,4.325108127703193
174,9048.942187156032,4518.601742863655,4181.5721911579885,217.0,4.3501087527188185
175,9143.033409679001,4564.097562853247,4180.96380154106,217.0,4.375109377734444
176,9237.118410956587,4609.570896983147,4180.355945943491,217.0,4.400110002750069
177,9331.19719998607,4655.021750718355,4179.7486236527575,217.0,4.425110627765695
178,9425.269785749306,4700.450129527599,4179.141833957811,217.0,4.45011125278132
179,9519.33617721274,4745.856038857251,4178.535576149077,217.0,4.475111877796945
180,9613.396383327432,4791.239484149963,4177.929849518442,217.0,4.500112502812571
181,9707.450413029104,4836.600470829755,4177.32465335926,217.0,4.525113127828196
182,9801.498275238155,4881.939004316926,4176.719986966346,217.0,4.550113752843822
183,9895.539978859693,4927.255090016872,4176.115849635973,217.0,4.575114377859447
184,9989.575532783569,4972.548733331263,4175.512240665867,217.0,4.600115002875072
185,10083.60494588439,5017.819939643145,4174.909159355204,217.0,4.625115627890698
186,10177.62822702158,5063.068714324385,4174.306605004611,217.0,4.650116252906323
187,10271.64538503937,5108.295062735677,4173.704576916159,217.0,4.6751168779219485
188,10365.656428766853,5153.498990245163,4173.103074393358,217.0,4.700117502937574
189,10459.661367018012,5198.680502183735,4172.50209674116,217.0,4.725118127953199
190,10553.660208591733,5243.839603886008,4171.90164326595,217.0,4.750118752968825
191,10647.652962271846,5288.976300671697,4171.301713275546,217.0,4.77511937798445
192,10741.639636827149,5334.0905978530645,4170.702306079194,217.0,4.8001200030000755
193,10835.620241011442,5379.182500738651,4170.103420987566,217.0,4.825120628015701
194,10929.594783563549,5424.252014607191,4169.505057312757,217.0,4.850121253031326
195,11023.563273207346,5469.299144741148,4168.907214368283,217.0,4.875121878046952
196,11117.525718651796,5514.323896415532,4168.309891469072,217.0,4.900122503062577
197,11211.482128590977,5559.326274883002,4167.713087931468,217.0,4.925123128078202
198,11305.432511704097,5604.306285388768,4167.116803073227,217.0,4.950123753093828
199,11399.376876655544,5649.263933178037,4166.5210362135085,217.0,4.975124378109453
200,11493.315232094885,5694.199223473668,4165.925786672878,217.0,5.000125003125079
201,11587.247586656931,5739.1121614947915,4165.331053773299,217.0,5.025125628140704
202,11681.17394896173,5784.002752441913,4164.736836838138,217.0,5.050126253156329
203,11775.094327614615,5828.871001519263,4164.14313519215,217.0,5.075126878171955
204,11869.00873120623,5873.71691390872,4163.549948161486,217.0,5.10012750318758
205,11962.917168312553,5918.540494784713,4162.957275073684,217.0,5.1251281282032055
206,12056.81964749492,5963.341749314219,4162.365115257668,217.0,5.150128753218831
207,12150.716177300064,6008.120682649314,4161.773468043743,217.0,5.175129378234456
208,12244.606766260136,6052.877299934626,4161.182332763595,217.0,5.200130003250082
209,12338.49142289273,6097.611606311053,4160.591708750285,217.0,5.225130628265707
210,12432.370155700914,6142.32360689342,4160.001595338249,217.0,5.2501312532813325
211,12526.242973173257,6187.013306811452,4159.411991863292,217.0,5.275131878296958
212,12620.109883783867,6231.680711150169,4158.822897662587,217.0,5.300132503312583
213,12713.970895992392,6276.325825016946,4158.234312074671,217.0,5.325133128328209
214,12807.826018244074,6320.948653485626,4157.64623443944,217.0,5.350133753343834
215,12901.67525896976,6365.5492016375065,4157.0586640981555,217.0,5.375134378359459
216,12995.518626585936,6410.127474535257,4156.471600393426,217.0,5.400135003375085
217,13089.356129494756,6454.683477226645,4155.885042669218,217.0,5.42513562839071
218,13183.187776084056,6499.2172147631645,4155.298990270843,217.0,5.450136253406336
