,distance,altitude,velocity,mass,time
0,0.0,0.0,0.0,1534.0,0.0
1,0.24624253620609293,0.12087510898709297,21.95792471830159,1534.0,0.025000625015625392
2,0.9861289569608896,0.4841166138648987,43.99469101773337,1523.2142857142858,0.050001250031250784
3,2.2214064309898296,1.0906536057591438,66.11084284310724,1523.2142857142858,0.07500187504687618
4,3.9538341500411676,1.9414216317236423,88.30692919648165,1512.4285714285716,0.10000250006250157
5,6.188096168209076,3.0316521041095257,110.59506643966192,1512.4285714285716,0.12500312507812697
6,8.93281161445848,4.348792634904385,132.9709637933177,1501.6428571428573,0.15000375009375236
7,12.19129308615163,5.890647653490305,155.43249853472534,1501.6428571428573,0.17500437510937775
8,15.96662939749207,7.655480649322271,177.97967702909776,1490.8571428571431,0.20000500012500314
9,20.261753193438967,9.641890283674002,200.61265109681847,1490.8571428571431,0.22500562514062852
10,25.07948268036522,11.848732110112906,223.33167132848104,1480.071428571429,0.25000625015625394
11,30.42254983319726,14.275065250694752,246.13705917967224,1480.071428571429,0.27500687517187933
12,36.293620359162695,16.92011435702443,269.02918925574994,1469.2857142857147,0.3000075001875047
13,42.695308351028096,19.78324158489704,292.008477524535,1469.2857142857147,0.3250081252031301
14,49.6301873658388,22.86392529681325,315.07537317235955,1458.5000000000005,0.3500087502187555
15,57.100799010232436,26.16174352541566,338.2303528014986,1458.5000000000005,0.3750093752343809
16,65.10965973410731,29.67636089026928,361.4739161889716,1447.7142857142862,0.40001000025000627
17,73.65926630428973,33.40751803293824,384.80658311956245,1447.7142857142862,0.42501062526563166
18,82.75210028464443,37.35502300411463,408.2288909779149,1436.928571428572,0.45001125028125705
19,92.39063175436125,41.51874412968755,431.7413921800202,1436.928571428572,0.47501187529688244
20,102.57732226682546,45.89860399439931,455.3446379166841,1426.1428571428578,0.5000125003125079
21,113.31462725492489,50.4945742636919,479.03919487235896,1426.1428571428578,0.5250131253281333
22,124.60499852622448,55.306671518832445,502.82564933693243,1415.3571428571436,0.5500137503437587
23,136.45088628207324,60.33495357632637,526.7045952883791,1415.3571428571436,0.575014375359384
24,148.85474032456315,65.57951608672738,550.6765994293072,1404.5714285714294,0.6000150003750094
25,161.81901128983404,71.04048965126276,574.7422496549214,1404.5714285714294,0.6250156253906348
26,175.34615101324908,76.71803699806333,598.9020528183968,1393.7857142857151,0.6500162504062602
27,189.43861336562244,82.61235067620873,623.1565857655843,1393.7857142857151,0.6750168754218856
28,204.09885562946496,88.72365133464336,647.5063959715301,1383.000000000001,0.700017500437511
29,219.32933945031044,95.0521860383451,671.952078393046,1383.000000000001,0.7250181254531364
30,235.1325312212266,101.59822656214237,696.4940943124652,1372.2142857142867,0.7500187504687618
31,251.51089824495995,108.36206617578864,721.1328022712627,1372.2142857142867,0.7750193754843872
32,268.46691161838316,115.34401932731271,745.8687387289109,1361.4285714285725,0.8000200005000125
33,286.0030467294828,122.54442050680518,770.7022534633054,1361.4285714285725,0.8250206255156379
34,304.12178031308116,129.96362184360623,795.6337266428359,1350.6428571428582,0.8500212505312633
35,322.8255944548283,137.60199361667037,820.6636853175395,1350.6428571428582,0.8750218755468887
36,342.11697800423735,145.45992386341095,845.7926355527478,1339.857142857144,0.9000225005625141
37,361.9984256893387,153.53781704604626,871.0209359799483,1339.857142857144,0.9250231255781395
38,382.47242965927484,161.83608980476856,896.3485092634103,1329.0714285714298,0.9500237505937649
39,403.54148222510713,170.3551713079214,921.7758560313217,1329.0714285714298,0.9750243756093903
40,425.2080836266854,179.09550569206476,947.3034208251894,1318.2857142857156,1.0000250006250158
41,447.47473580386173,188.0575488805771,972.9311623024436,1318.2857142857156,1.0250256256406411
42,470.34393368246157,197.2417644932866,998.659053971871,1307.5000000000014,1.0500262506562665
43,493.81817275488095,206.64862635731697,1024.4873631906516,1307.5000000000014,1.075026875671892
44,517.8999512050904,216.27861883491278,1050.4163388548081,1296.7142857142871,1.1000275006875173
45,542.5917696428887,226.1322362460196,1076.4462106443366,1296.7142857142871,1.1250281257031427
46,567.8961420397982,236.20998679101467,1102.5787569592744,1285.928571428573,1.150028750718768
47,593.8156474657827,246.51241267845035,1128.8172292200918,1285.928571428573,1.1750293757343935
48,620.352928964052,257.0400891676545,1155.164710201378,1275.1428571428587,1.2000300007500189
49,647.5107584667575,267.7936497554183,1181.6303312813282,1275.1428571428587,1.2250306257656443
50,675.2921544662511,278.7738321945071,1208.2226075084936,1264.3571428571445,1.2500312507812696
51,703.7001019165335,289.98136706650257,1234.9323369992633,1264.3571428571445,1.275031875796895
52,732.7374507782911,301.4169375412166,1261.7582733722084,1253.5714285714303,1.3000325008125204
53,762.4070243262037,313.08122205734253,1288.6994520767632,1253.5714285714303,1.3250331258281458
54,792.7116483502671,324.97490557283163,1315.7567808655467,1242.785714285716,1.3500337508437712
55,823.6541605329635,337.09868306294084,1342.9304814460036,1242.785714285716,1.3750343758593966
56,855.2374072217425,349.45325796306133,1370.2214221323159,1232.0000000000018,1.400035000875022
57,887.4642590819844,362.0393481142819,1397.630808429019,1232.0000000000018,1.4250356258906474
58,920.3376113474335,374.8576855994761,1425.159667097242,1221.2142857142876,1.4500362509062728
59,953.8603780663967,387.9090142957866,1452.808709708971,1221.2142857142876,1.4750368759218981
60,988.0354893195573,401.1940885819495,1480.5788277785484,1210.4285714285734,1.5000375009375235
61,1022.8658969578648,414.7136753797531,1508.4710617251262,1210.4285714285734,1.525038125953149
62,1058.3545759183817,428.4685544781387,1536.4864679547063,1199.6428571428592,1.5500387509687743
63,1094.5045246625302,442.4595185481012,1564.6261333387142,1199.6428571428592,1.5750393759843997
64,1131.3187676544478,456.68737388402224,1592.8912882149189,1188.857142857145,1.600040001000025
65,1168.8003549253647,471.1529401168227,1621.2829863400077,1188.857142857145,1.6250406260156505
66,1206.9523604863105,485.8570494093001,1649.8023510528424,1178.0714285714307,1.6500412510312759
67,1245.7778838587976,500.80054691806436,1678.450531600888,1178.0714285714307,1.6750418760469012
68,1285.2800505488672,515.9842908270657,1707.2286956286243,1167.2857142857165,1.7000425010625266
69,1325.4620125280485,531.4091523848474,1736.1380295655,1167.2857142857165,1.725043126078152
70,1366.3269487216191,547.076015971601,1765.179739024884,1156.5000000000023,1.7500437510937774
71,1407.8780655045446,562.985779158771,1794.3550492143186,1156.5000000000023,1.7750443761094028
72,1450.118596408338,579.139352478087,1823.665089567778,1145.714285714288,1.8000450011250282
73,1493.0517983125362,595.5376578271389,1853.1108813242372,1145.714285714288,1.8250456261406536
74,1536.6809539642784,612.1816293634474,1882.6936699056255,1134.9285714285738,1.850046251156279
75,1581.0093749350697,629.0722145028412,1912.4147330093433,1134.9285714285738,1.8750468761719044
76,1626.0404021296997,646.210373993963,1942.2753688144703,1124.1428571428596,1.9000475011875297
77,1671.7774063040688,663.5970820523798,1972.2768964209797,1124.1428571428596,1.9250481262031551
78,1718.223788592267,681.2333264239132,2002.4206563012087,1113.3571428571454,1.9500487512187805
79,1765.38298104328,699.1201085262,2032.7080014123906,1113.3571428571454,1.975049376234406
80,1813.2584453356135,717.2584428451955,2063.1401553348624,1102.5714285714312,2.0000500012500315
81,1861.8536716320245,735.6493564248085,2093.7184365372477,1102.5714285714312,2.025050626265657
82,1911.1721817656755,754.2938899993896,2124.4442570435494,1091.785714285717,2.0500512512812823
83,1961.217530286344,773.1930982843041,2155.3190518908173,1091.785714285717,2.0750518762969077
84,2011.9933050313039,792.3480501286685,2186.344279634244,1081.0000000000027,2.100052501312533
85,2063.5031277074236,811.7598286569118,2217.521422866465,1081.0000000000027,2.1250531263281585
86,2115.7506544848693,831.4295314066112,2248.8519887515135,1070.2142857142885,2.150053751343784
87,2168.7395755047223,851.3582700751722,2280.337364864381,1070.2142857142885,2.1750543763594092
88,2222.4736116070308,871.5471692197025,2311.9789225096747,1059.4285714285743,2.2000550013750346
89,2276.9565179406386,891.9973675385118,2343.7782197678284,1059.4285714285743,2.22505562639066
90,2332.1920860610803,912.7100186049938,2375.7368435921,1048.64285714286,2.2500562514062854
91,2388.184144564595,933.68629103899,2407.85640738835,1048.64285714286,2.275056876421911
92,2444.9365597353994,954.9273686669767,2440.1385516112564,1037.8571428571458,2.300057501437536
93,2502.4532362066307,976.4344507306814,2472.584944377592,1037.8571428571458,2.3250581264531616
94,2560.738117635399,998.2087520584464,2505.1972820971314,1027.0714285714316,2.350058751468787
95,2619.795187392401,1020.2515032663941,2537.977290121782,1027.0714285714316,2.3750593764844123
96,2679.6284692665454,1042.5639509782195,2570.926723413567,1016.2857142857173,2.4000600015000377
97,2740.242028185073,1065.147358018905,2604.047367232093,1016.2857142857173,2.425060626515663
98,2801.6399709496604,1088.0030036345124,2637.3410378421863,1005.500000000003,2.4500612515312885
99,2863.8264469889978,1111.1321837194264,2670.809583242388,1005.500000000003,2.475061876546914
100,2926.8056491283796,1134.5362110622227,2704.454865170047,994.7142857142886,2.5000625015625393
101,2990.5818084951334,1158.2164133675396,2738.27819155233,994.7142857142886,2.5250631265781647
102,3055.1591850482973,1182.1741297319531,2772.2810271123917,983.9285714285743,2.55006375159379
103,3120.5420798068903,1206.4107151143253,2806.465283401898,983.9285714285743,2.5750643766094155
104,3186.7348387392176,1230.927541743964,2840.8329047056245,973.14285714286,2.600065001625041
105,3253.7418535543206,1255.7259993590415,2875.385868801848,973.14285714286,2.6250656266406662
106,3321.567562511285,1280.8074954748154,2910.1261877450897,962.3571428571456,2.6500662516562916
107,3390.2164512469576,1306.1734556108713,2945.055908672004,962.3571428571456,2.675066876671917
108,3459.693053622633,1331.8253235854208,2980.177114631221,951.5714285714313,2.7000675016875424
109,3530.001952590308,1357.7645617872477,3015.4919254380015,951.5714285714313,2.725068126703168
110,3601.147781079101,1383.9926514402032,3051.0024985545897,940.785714285717,2.750068751718793
111,3673.1352229024646,1410.5110929235816,3086.711029997188,940.785714285717,2.7750693767344186
112,3745.969013686849,1437.3214060254395,3122.619755270516,930.0000000000026,2.800070001750044
113,3819.653941822478,1464.4251303039491,3158.730950330972,930.0000000000026,2.8250706267656693
114,3894.194849436942,1491.8238253630698,3195.0469325794247,919.2142857142883,2.8500712517812947
115,3969.5966333923193,1519.5190711952746,3231.570061884753,919.2142857142883,2.87507187679692
116,4045.864246306586,1547.5124685056508,3268.3027416392574,908.428571428574,2.9000725018125455
117,4123.002697600074,1575.805639065802,3305.247419847148,908.428571428574,2.925073126828171
118,4201.017054567783,1604.4002260528505,3342.4065902473512,897.6428571428596,2.9500737518437963
119,4279.912443478395,1633.297894436866,3379.7827934719235,897.6428571428596,2.9750743768594217
120,4359.694050700824,1662.5003313161433,3417.3786182414538,886.8571428571453,3.000075001875047
121,4440.367123859221,1692.0092463381588,3455.1967025988506,886.8571428571453,3.0250756268906724
122,4521.936973017354,1721.8263720795512,3493.23973518301,876.0714285714309,3.050076251906298
123,4604.408971893329,1751.9534644335508,3531.5104565439146,876.0714285714309,3.075076876921923
124,4687.788559105653,1782.392303057015,3570.011660500775,865.2857142857166,3.1000775019375486
125,4772.081239451678,1813.1446917876601,3608.746195544928,865.2857142857166,3.125078126953174
126,4857.2925852195185,1844.2124590724707,3647.716966289244,854.5000000000023,3.1500787519687994
127,4943.428237534545,1875.5974584370852,3686.9269349659207,854.5000000000023,3.1750793769844248
128,5030.493907741647,1907.3015689440072,3726.379122974601,843.7142857142879,3.20008000200005
129,5118.495378824459,1939.3266956843436,3766.076612482843,843.7142857142879,3.2250806270156755
130,5207.438506862837,1971.674770243466,3806.02254808109,832.9285714285736,3.250081252031301
131,5297.329222529873,2004.3477512411773,3846.2201384943683,832.9285714285736,3.2750818770469263
132,5388.173532629833,2037.3476248383522,3886.672658353055,822.1428571428593,3.3000825020625517
133,5479.977521678468,2070.676405273378,3927.383450025179,822.1428571428593,3.325083127078177
134,5572.74735352712,2104.3361354097724,3968.355925512824,811.3571428571449,3.3500837520938025
135,5666.489273032234,2138.328887321055,4009.5935684153465,811.3571428571449,3.375084377109428
136,5761.209607771859,2172.656762883067,4051.099935962239,800.5714285714306,3.4000850021250533
137,5856.914769810816,2207.321894340217,4092.878661118628,800.5714285714306,3.4250856271406787
138,5953.611257516302,2242.3264449611306,4134.933454766518,789.7857142857163,3.450086252156304
139,6051.305657425739,2277.672609668225,4177.268107965091,789.7857142857163,3.4750868771719294
140,6150.004646168785,2313.362615700811,4212.701001762676,780.7976190476211,3.500087502187555
141,6249.038174094266,2349.1540795452893,4212.350009763062,780.7976190476211,3.52508812720318
142,6348.069537554519,2384.9252489469945,4211.999243068561,780.7976190476211,3.5500887522188056
143,6447.096374917478,2420.6752715706825,4211.447664680018,780.7976190476211,3.575089377234431
144,6546.11632841981,2456.4032970629632,4210.89656923209,217.0,3.6000900022500564
145,6645.1294061085055,2492.109329532832,4210.3459561745085,217.0,3.6250906272656818
146,6744.13561601787,2527.7933730967343,4209.795824958054,217.0,3.650091252281307
147,6843.134966169565,2563.4554318375885,4209.246175034553,217.0,3.6750918772969325
148,6942.127464572607,2599.0955098606646,4208.697005856869,217.0,3.700092502312558
149,7041.113119223406,2634.71361124143,4208.148316878907,217.0,3.7250931273281833
150,7140.091938105781,2670.3097400590777,4207.600107555612,217.0,3.7500937523438087
151,7239.063929190985,2705.8839003816247,4207.052377342961,217.0,3.775094377359434
152,7338.029100437723,2741.436096265912,4206.505125697967,217.0,3.8000950023750595
153,7436.987459792174,2776.9663317725062,4205.958352078671,217.0,3.825095627390685
154,7535.939015188023,2812.474610943347,4205.4120559441435,217.0,3.8500962524063103
155,7634.883774546467,2847.960937820375,4204.866236754485,217.0,3.8750968774219356
156,7733.82174577625,2883.4253164306283,4204.320893970816,217.0,3.900097502437561
157,7832.752936773676,2918.867750801146,4203.776027055283,217.0,3.9250981274531864
158,7931.677355422636,2954.2882449515164,4203.231635471049,217.0,3.950098752468812
159,8030.59500959463,2989.686802882701,4202.687718682299,217.0,3.975099377484437
160,8129.505907148778,3025.0634286105633,4202.144276154232,217.0,4.000100002500063
161,8228.41005593186,3060.4181261211634,4201.601307353061,217.0,4.025100627515688
162,8327.307463778323,3095.7508994042873,4201.058811746012,217.0,4.050101252531314
163,8426.19813851031,3131.061752438545,4200.516788801318,217.0,4.075101877546939
164,8525.08208793767,3166.3506892062724,4199.975237988222,217.0,4.100102502562565
165,8623.959319858002,3201.6177136600018,4199.434158776972,217.0,4.12510312757819
166,8722.829842056652,3236.862829770893,4198.89355063882,217.0,4.150103752593815
167,8821.693662306745,3272.086041484028,4198.353413046016,217.0,4.175104377609441
168,8920.550788369208,3307.287352748215,4197.813745471812,217.0,4.200105002625066
169,9019.40122799279,3342.466767501086,4197.274547390457,217.0,4.2251056276406915
170,9118.244988914083,3377.6242896690965,4196.735818277196,217.0,4.250106252656317
171,9217.082078857542,3412.7599231749773,4196.197557608264,217.0,4.275106877671942
172,9315.912505535503,3447.873671941459,4195.659764860889,217.0,4.300107502687568
173,9414.736276648211,3482.9655398763716,4195.122439513286,217.0,4.325108127703193
174,9513.553399883838,3518.0355308763683,4194.585581044661,217.0,4.3501087527188185
175,9612.363882918502,3553.083648841828,4194.0491889352,217.0,4.375109377734444
176,9711.16773341629,3588.109897658229,4193.5132626660725,217.0,4.400110002750069
177,9809.96495902928,3623.114281207323,4192.977801719432,217.0,4.425110627765695
178,9908.755567397558,3658.0968033634126,4192.442805578407,217.0,4.45011125278132
179,10007.539566149242,3693.0574679896235,4191.908273727104,217.0,4.475111877796945
180,10106.316962900504,3727.996278952807,4191.3742056506035,217.0,4.500112502812571
181,10205.087765255583,3762.9132401011884,4190.840600834958,217.0,4.525113127828196
182,10303.851980806816,3797.8083552867174,4190.3074587671945,217.0,4.550113752843822
183,10402.609617134656,3832.6816283389926,4189.774778935302,217.0,4.575114377859447
184,10501.360681807688,3867.5330630913377,4189.24256082824,217.0,4.600115002875072
185,10600.105182382647,3902.3626633770764,4188.710803935934,217.0,4.625115627890698
186,10698.843126404452,3937.170433010906,4188.179507749266,217.0,4.650116252906323
187,10797.574521406215,3971.956375796348,4187.648671760086,217.0,4.6751168779219485
188,10896.299374909258,4006.7204955518246,4187.118295461195,217.0,4.700117502937574
189,10995.017694423152,4041.4627960696816,4186.588378346356,217.0,4.725118127953199
190,11093.729487445715,4076.183281134814,4186.058919910283,217.0,4.750118752968825
191,11192.434761463051,4110.881954532117,4185.529919648648,217.0,4.77511937798445
192,11291.133523949555,4145.5588200464845,4185.0013770580645,217.0,4.8001200030000755
193,11389.825782367945,4180.213881444186,4184.473291636104,217.0,4.825120628015701
194,11488.511544169272,4214.847142484039,4183.945662881278,217.0,4.850121253031326
195,11587.19081679295,4249.458606932312,4183.418490293045,217.0,4.875121878046952
196,11685.863607666775,4284.048278525472,4182.891773371807,217.0,4.900122503062577
197,11784.529924206925,4318.616161022335,4182.365511618907,217.0,4.925123128078202
198,11883.18977381802,4353.162258148193,4181.839704536622,217.0,4.950123753093828
199,11981.843163893103,4387.686573635787,4181.314351628173,217.0,4.975124378109453
200,12080.490101813679,4422.1891112066805,4180.789452397711,217.0,5.000125003125079
201,12179.130594949731,4456.669874578714,4180.265006350322,217.0,5.025125628140704
202,12277.764650659745,4491.128867462277,4179.741012992023,217.0,5.050126253156329
203,12376.392276290717,4525.5660935640335,4179.217471829757,217.0,5.075126878171955
204,12475.013479178193,4559.981556568295,4178.694382371401,217.0,5.10012750318758
205,12573.628266646263,4594.375260174274,4178.17174412575,217.0,5.1251281282032055
206,12672.236646007605,4628.747208058834,4177.649556602526,217.0,5.150128753218831
207,12770.838624563485,4663.097403910011,4177.127819312373,217.0,5.175129378234456
208,12869.434209603798,4697.425851382315,4176.606531766852,217.0,5.200130003250082
209,12968.023408407067,4731.732554141432,4176.085693478445,217.0,5.225130628265707
210,13066.606228240465,4766.017515856773,4175.565303960547,217.0,5.2501312532813325
211,13165.182676359858,4800.28074016422,4175.045362727468,217.0,5.275131878296958
212,13263.752760009793,4834.522230710834,4174.52586929443,217.0,5.300132503312583
213,13362.31648642353,4868.741991136223,4174.006823177565,217.0,5.325133128328209
214,13460.873862823071,4902.940025072545,4173.488223893913,217.0,5.350133753343834
215,13559.42489641917,4937.116336133331,4172.97007096142,217.0,5.375134378359459
216,13657.96959441135,4971.270927947015,4172.452363898938,217.0,5.400135003375085
217,13756.50796398793,5005.403804112226,4171.935102226222,217.0,5.42513562839071
218,13855.04001232603,5039.5149682462215,4171.418285463923,217.0,5.450136253406336
