,distance,altitude,velocity,mass,time
0,0.0,0.0,0.0,1534.0,0.0
1,0.009733013146583841,0.2686626575887203,21.520214363356253,1534.0,0.025000625015625392
2,0.038977855243317594,1.0759623013436794,43.119312086092,1523.2142857142858,0.050001250031250784
3,0.08780358301365858,2.4238766096532345,64.79784121731153,1523.2142857142858,0.07500187504687618
4,0.15682783552940502,4.314377386122942,86.55637207091064,1512.4285714285716,0.10000250006250157
5,0.2465655380498805,6.749453775584698,108.39544595381133,1512.4285714285716,0.12500312507812697
6,0.3572649917604029,9.731118310242891,130.31562111522507,1501.6428571428573,0.15000375009375236
7,0.48914469968178065,13.261398669332266,152.31746172850822,1501.6428571428573,0.17500437510937775
8,0.6424028422192045,17.34233747050166,174.40153768097747,1490.8571428571431,0.20000500012500314
9,0.8172229047294096,21.97599219530821,196.56842450212304,1490.8571428571431,0.22500562514062852
10,1.0137773007927058,27.164435226470232,218.81870335314522,1480.071428571429,0.25000625015625394
11,1.2322298456441765,32.9097538664937,241.1529610475453,1480.071428571429,0.27500687517187933
12,1.4727375216435559,39.21405043080449,263.5717900891298,1469.2857142857147,0.3000075001875047
13,1.7354517835646652,46.07944234460592,286.07578872064045,1469.2857142857147,0.3250081252031301
14,2.02051955161446,53.50806223973632,308.6655609793643,1458.5000000000005,0.3500087502187555
15,2.328083984997763,61.50205807387829,331.3417167576495,1458.5000000000005,0.3750093752343809
16,2.6582850967029192,70.06359326466918,354.1048718670893,1447.7142857142862,0.40001000025000627
17,3.011260250550561,79.19484680891037,376.95564810560495,1447.7142857142862,0.42501062526563166
18,3.3871445690833792,88.89801342785358,399.8946733269412,1436.928571428572,0.45001125028125705
19,3.786071272697643,99.17530367895961,422.92258151225434,1436.928571428572,0.47501187529688244
20,4.208171962576613,110.02894408628345,446.04000466944524,1426.1428571428578,0.5000125003125079
21,4.653576849824248,121.4611769169569,469.2475703611108,1426.1428571428578,0.5250131253281333
22,5.122414967008753,133.47426041215658,492.54592461909834,1415.3571428571436,0.5500137503437587
23,5.614814353999683,146.07046911120415,515.9357201289959,1415.3571428571436,0.575014375359384
24,6.130902207397744,159.25209382921457,539.4175932491331,1404.5714285714294,0.6000150003750094
25,6.670804990371385,173.02144107595086,562.9921743631378,1404.5714285714294,0.6250156253906348
26,7.234648548103488,187.38083305209875,586.6600611515571,1393.7857142857151,0.6500162504062602
27,7.8225581597393035,202.33260641619563,610.4218437130351,1393.7857142857151,0.6750168754218856
28,8.434658662590845,217.87911311909556,634.2781281294014,1383.000000000001,0.700017500437511
29,9.07107452183071,234.02272014319897,658.2295278629084,1383.000000000001,0.7250181254531364
30,9.731929934056753,250.76581032201648,682.2766680688907,1372.2142857142867,0.7500187504687618
31,10.417348773985706,268.1107793189585,706.4199370377638,1372.2142857142867,0.7750193754843872
32,11.127454554711457,286.06003318727016,730.6598424085154,1361.4285714285725,0.8000200005000125
33,11.862370631530977,304.61599219217896,754.9969464744919,1361.4285714285725,0.8250206255156379
34,12.622220104491463,323.7810871489346,779.4315517933761,1350.6428571428582,0.8500212505312633
35,13.407125835783667,343.55775877833366,803.9641816430892,1350.6428571428582,0.8750218755468887
36,14.217210652950257,363.94846184551716,828.595403325891,1339.857142857144,0.9000225005625141
37,15.0525973768996,384.9556649290025,853.3257542974131,1339.857142857144,0.9250231255781395
38,15.913408737888503,406.5818475037813,878.1554586823833,1329.0714285714298,0.9500237505937649
39,16.79976703155595,428.82949052378535,903.0846267962565,1329.0714285714298,0.9750243756093903
40,17.711794490336164,451.70108507946134,928.1138571594657,1318.2857142857156,1.0000250006250158
41,18.649613442732417,475.19913570955396,953.2435673410544,1318.2857142857156,1.0250256256406411
42,19.61334595022057,499.3261507563293,978.473640020317,1307.5000000000014,1.0500262506562665
43,20.603113634883155,524.0846374854445,1003.8042389741364,1307.5000000000014,1.075026875671892
44,21.619038021483398,549.4771101474762,1029.2356795048568,1296.7142857142871,1.1000275006875173
45,22.661240583779954,575.5060906782746,1054.768260153031,1296.7142857142871,1.1250281257031427
46,23.729842745020804,602.174108274281,1080.402264308075,1285.928571428573,1.150028750718768
47,24.824966563575376,629.4837160743773,1106.1400129182093,1285.928571428573,1.1750293757343935
48,25.946737035357057,657.437548134476,1131.9846076014735,1275.1428571428587,1.2000300007500189
49,27.095281454190633,686.0383030213416,1157.9390460162665,1275.1428571428587,1.2250306257656443
50,28.270733117327694,715.2888355366886,1184.013319935781,1264.3571428571445,1.2500312507812696
51,29.47323528902578,745.1922547630966,1210.2140422713535,1264.3571428571445,1.275031875796895
52,30.70292857295079,775.7516094371676,1236.5325705872103,1253.5714285714303,1.3000325008125204
53,31.95994834354538,806.9698239117861,1262.9677589202088,1253.5714285714303,1.3250331258281458
54,33.244428676948196,838.8497958108783,1289.5188428861634,1242.785714285716,1.3500337508437712
55,34.55650380793433,871.3944320082664,1316.1867887416886,1242.785714285716,1.3750343758593966
56,35.89630838146139,904.6066546440125,1342.9718486032516,1232.0000000000018,1.400035000875022
57,37.263977345631666,938.4893982596695,1369.8749402230922,1232.0000000000018,1.4250356258906474
58,38.65964661889801,973.0456260927022,1396.8972926348283,1221.2142857142876,1.4500362509062728
59,40.08345309940262,1008.2783301323652,1424.0399638282586,1221.2142857142876,1.4750368759218981
60,41.53553443993201,1044.1905253082514,1451.3037157612448,1210.4285714285734,1.5000375009375235
61,43.01602891904047,1080.7852461226285,1478.6894596684035,1210.4285714285734,1.525038125953149
62,44.525075687628465,1118.0655525922775,1506.198266568068,1199.6428571428592,1.5500387509687743
63,46.06281483528713,1156.0345316752791,1533.8312237131913,1199.6428571428592,1.5750393759843997
64,47.62938741368668,1194.6952977143228,1561.589445180167,1188.857142857145,1.600040001000025
65,49.22493553603046,1234.0509947128594,1589.4741852646846,1188.857142857145,1.6250406260156505
66,50.849602384044935,1274.104796346277,1617.486538874348,1178.0714285714307,1.6500412510312759
67,52.50353213238638,1314.859903972596,1645.6276588722155,1178.0714285714307,1.6750418760469012
68,54.18687001962194,1356.3195482231677,1673.8987263173005,1167.2857142857165,1.7000425010625266
69,55.89976237248558,1398.486989453435,1702.3009409685453,1167.2857142857165,1.725043126078152
70,57.64235663032558,1441.365518257022,1730.835521683514,1156.5000000000023,1.7500437510937774
71,59.414801369767375,1484.958455901593,1759.503706827235,1156.5000000000023,1.7750443761094028
72,61.21724632961386,1529.2691548392177,1788.3067546915036,1145.714285714288,1.8000450011250282
73,63.049842427138465,1574.3009990118444,1817.24589321804,1145.714285714288,1.8250456261406536
74,64.91274160496683,1620.0573999397457,1846.3221426310868,1134.9285714285738,1.850046251156279
75,66.80609686744815,1666.5417975448072,1875.5367733723267,1134.9285714285738,1.8750468761719044
76,68.73006245537232,1713.7576643191278,1904.8910999193065,1124.1428571428596,1.9000475011875297
77,70.68479387117203,1761.7085058577359,1934.386457758335,1124.1428571428596,1.9250481262031551
78,72.67044790445219,1810.3978613950312,1964.024203836535,1113.3571428571454,1.9500487512187805
79,74.6871826578658,1859.8293043263257,1993.8057170256466,1113.3571428571454,1.975049376234406
80,76.73515757335556,1910.0064427740872,2023.7323985979442,1102.5714285714312,2.0000500012500315
81,78.81453342431342,1960.932919304818,2053.8055682965755,1102.5714285714312,2.025050626265657
82,80.9254722191454,2012.6124084964395,2084.0265370237353,1091.785714285717,2.0500512512812823
83,83.06813732189259,2065.0486197918653,2114.3967567722707,1091.785714285717,2.0750518762969077
84,85.24269352688061,2118.2452992610633,2144.917705614945,1081.0000000000027,2.100052501312533
85,87.4493070863342,2172.2062302157283,2175.590885872728,1081.0000000000027,2.1250531263281585
86,89.68814573845017,2226.9352337755263,2206.4178246487727,1070.2142857142885,2.150053751343784
87,91.95937873594772,2282.436169553548,2237.4000743767165,1070.2142857142885,2.1750543763594092
88,94.26317686759418,2338.7129360586405,2268.539169508037,1059.4285714285743,2.2000550013750346
89,96.59971232960379,2395.769467521459,2299.8364686924206,1059.4285714285743,2.22505562639066
90,98.96915876575545,2453.609734799713,2331.2935618864594,1048.64285714286,2.2500562514062854
91,101.37169143164041,2512.237749326974,2362.91208684765,1048.64285714286,2.275056876421911
92,103.80748722500238,2571.657563779503,2394.6937087656765,1037.8571428571458,2.300057501437536
93,106.27672471664695,2631.8732727840543,2426.640120878824,1037.8571428571458,2.3250581264531616
94,108.77958418194022,2692.889013633132,2458.753045107329,1027.0714285714316,2.350058751468787
95,111.31624763291806,2754.7089669816196,2491.034232704252,1027.0714285714316,2.3750593764844123
96,113.88689885102661,2817.337357610464,2523.485464924429,1016.2857142857173,2.4000600015000377
97,116.49172342051612,2880.778455171734,2556.1085537121116,1016.2857142857173,2.425060626515663
98,119.13090876251034,2945.036574985832,2588.9053424079207,1005.500000000003,2.4500612515312885
99,121.80464416977414,3010.1160787940025,2621.877706475759,1005.500000000003,2.475061876546914
100,124.5131208422024,3076.021375618875,2655.0275542503555,994.7142857142886,2.5000625015625393
101,127.256531923055,3142.7569225654006,2688.3568277061468,994.7142857142886,2.5250631265781647
102,130.0350724930744,3210.327224612236,2721.867315901817,983.9285714285743,2.55006375159379
103,132.848939091605,3278.736822966486,2755.560266409989,983.9285714285743,2.5750643766094155
104,135.69832984616926,3347.990298140794,2789.437604684486,973.14285714286,2.600065001625041
105,138.5834449142553,3418.0922806598246,2823.5013502368943,973.14285714286,2.6250656266406662
106,141.50448652106175,3489.0474519319832,2857.753557876536,962.3571428571456,2.6500662516562916
107,144.46165899806027,3560.860545154661,2892.1963185396285,962.3571428571456,2.675066876671917
108,147.45516882240221,3633.536346193403,2926.8317601425415,951.5714285714313,2.7000675016875424
109,150.4852246571956,3707.079694557935,2961.662048460004,951.5714285714313,2.725068126703168
110,153.55203739268117,3781.49548432976,2996.6893880291295,940.785714285717,2.750068751718793
111,156.65582018833538,3856.788665153086,3031.9160230801676,940.785714285717,2.7750693767344186
112,159.7967885159309,3932.964243236929,3067.344238494942,930.0000000000026,2.800070001750044
113,162.97516020358398,4010.027282383293,3102.9763607939462,930.0000000000026,2.8250706267656693
114,166.19115548082192,4087.982905037701,3138.8147591531424,919.2142857142883,2.8500712517812947
115,169.4449970247015,4166.836293365806,3174.86184645152,919.2142857142883,2.87507187679692
116,172.73691000701348,4246.592690363526,3211.1200803505453,908.428571428574,2.9000725018125455
117,176.06712214260727,4327.2574009895325,3247.591964406665,908.428571428574,2.925073126828171
118,179.43586373887246,4408.83579332009,3284.280049218063,897.6428571428596,2.9500737518437963
119,182.84336774641415,4491.333299741149,3321.1869336069685,897.6428571428596,2.9750743768594217
120,186.28986981096057,4574.755418181419,3358.3152658388085,886.8571428571453,3.000075001875047
121,189.77560832654416,4659.107713326812,3395.667744879601,886.8571428571453,3.0250756268906724
122,193.30082448999588,4744.395817946643,3433.2471216930294,876.0714285714309,3.050076251906298
123,196.86576235679732,4830.625434182584,3471.0562005786965,876.0714285714309,3.075076876921923
124,200.47066889833457,4917.80233489722,3509.097840553137,865.2857142857166,3.1000775019375486
125,204.11579406059963,5005.932365082204,3547.3749567752247,865.2857142857166,3.125078126953174
126,207.80139082438845,5095.021443247795,3585.890522017696,854.5000000000023,3.1500787519687994
127,211.52771526704436,5185.075562894344,3624.6475681865786,854.5000000000023,3.1750793769844248
128,215.29502662579893,5276.10079402104,3663.649187890405,843.7142857142879,3.20008000200005
129,219.10358736276413,5368.103284638375,3702.898536061169,843.7142857142879,3.2250806270156755
130,222.95366323163137,5461.089262373745,3742.398831629086,832.9285714285736,3.250081252031301
131,226.84552334613517,5555.065036062151,3782.1533592532937,832.9285714285736,3.2750818770469263
132,230.77944025034188,5650.036997422576,3822.16547111075,822.1428571428593,3.3000825020625517
133,234.75568999082586,5746.011622782797,3862.4385887456833,822.1428571428593,3.325083127078177
134,238.77455219079857,5842.995474807918,3902.976204982059,811.3571428571449,3.3500837520938025
135,242.83631012625773,5940.995204325765,3943.781885901643,811.3571428571449,3.375084377109428
136,246.94125080422762,6040.0175521709025,3984.8592728903855,800.5714285714306,3.4000850021250533
137,251.08966504316294,6140.0693510994315,4026.2120847559463,800.5714285714306,3.4250856271406787
138,255.2818475555942,6241.157527752221,4067.8441199193585,789.7857142857163,3.450086252156304
139,259.5180970330923,6343.289104655385,4109.759258683941,789.7857142857163,3.4750868771719294
140,263.7987162336368,6446.471202310175,4144.758551112847,780.7976190476211,3.500087502187555
141,268.0941015293007,6549.990157406777,4143.888519472172,780.7976190476211,3.52508812720318
142,272.38937509626317,6653.487349752337,4143.01872860017,780.7976190476211,3.5500887522188056
143,276.68444782216756,6756.960632704198,4141.9769207218005,780.7976190476211,3.575089377234431
144,280.97923099943927,6860.407869838178,4140.935966492061,217.0,3.6000900022500564
145,285.2737254718175,6963.82908244431,4139.895863247681,217.0,3.6250906272656818
146,289.56793208056797,7067.224291745573,4138.856608333178,217.0,3.650091252281307
147,293.86185166448973,7170.593518886715,4137.818199100836,217.0,3.6750918772969325
148,298.15548505992217,7273.936784956604,4136.780632910676,217.0,3.700092502312558
149,302.44883310075113,7377.254110977054,4135.7439071304425,217.0,3.7250931273281833
150,306.7418966184167,7480.545517906547,4134.70801913557,217.0,3.7500937523438087
151,311.03467644191903,7583.811026625335,4133.672966309165,217.0,3.775094377359434
152,315.32717339782545,7687.050657961518,4132.638746041984,217.0,3.8000950023750595
153,319.6193883102772,7790.264432679862,4131.605355732403,217.0,3.825095627390685
154,323.911322000996,7893.45237146318,4130.572792786403,217.0,3.8500962524063103
155,328.2029752892906,7996.6144949533045,4129.5410546175435,217.0,3.8750968774219356
156,332.4943489920639,8099.750823702663,4128.510138646937,217.0,3.900097502437561
157,336.78544392381883,8202.861378222704,4127.480042303228,217.0,3.9250981274531864
158,341.0762608966656,8305.946178946644,4126.450763022575,217.0,3.950098752468812
159,345.3668007203279,8409.005246244371,4125.422298248618,217.0,3.975099377484437
160,349.65706420214974,8512.038600426167,4124.394645432464,217.0,4.000100002500063
161,353.9470521471017,8615.04626173526,4123.3678020326615,217.0,4.025100627515688
162,358.2367653577878,8718.028250355273,4122.341765515175,217.0,4.050101252531314
163,362.5262046344515,8820.9845864065,4121.316533353372,217.0,4.075101877546939
164,366.8153707749827,8923.915289942175,4120.292103027989,217.0,4.100102502562565
165,371.10426457492406,9026.82038095221,4119.268472027115,217.0,4.12510312757819
166,375.3928868274771,9129.69987937063,4118.245637846175,217.0,4.150103752593815
167,379.6812383235091,9232.55380506441,4117.223597987894,217.0,4.175104377609441
168,383.96931985155953,9335.382177837193,4116.202349962289,217.0,4.200105002625066
169,388.25713219784564,9438.185017433017,4115.181891286638,217.0,4.2251056276406915
170,392.54467614627015,9540.962343528867,4114.162219485462,217.0,4.250106252656317
171,396.8319524784264,9643.71417574957,4113.143332090502,217.0,4.275106877671942
172,401.1189619736053,9746.440533649176,4112.125226640699,217.0,4.300107502687568
173,405.40570540880134,9849.14143672958,4111.107900682172,217.0,4.325108127703193
174,409.6921835587195,9951.81690441817,4110.091351768193,217.0,4.3501087527188185
175,413.9783971957807,10054.466956097633,4109.07557745917,217.0,4.375109377734444
176,418.2643470901286,10157.091611072421,4108.060575322624,217.0,4.400110002750069
177,422.5500340096357,10259.690888602287,4107.046342933168,217.0,4.425110627765695
178,426.83545871990964,10362.264807868749,4106.0328778724825,217.0,4.45011125278132
179,431.1206219842991,10464.813388016075,4105.0201777293005,217.0,4.475111877796945
180,435.40552456390037,10567.336648114026,4104.008240099383,217.0,4.500112502812571
181,439.69016721756356,10669.834607161582,4102.997062585496,217.0,4.525113127828196
182,443.9745507018983,10772.307284124196,4101.986642797395,217.0,4.550113752843822
183,448.25867577128025,10874.75469788909,4100.976978351797,217.0,4.575114377859447
184,452.5425431778571,10977.176867287606,4099.968066872366,217.0,4.600115002875072
185,456.8261536715549,11079.573811095208,4098.95990598969,217.0,4.625115627890698
186,461.10950800008345,11181.945548027754,4097.95249334126,217.0,4.650116252906323
187,465.3926069089434,11284.292096737772,4096.945826571451,217.0,4.6751168779219485
188,469.6754511414314,11386.613475814462,4095.939903331497,217.0,4.700117502937574
189,473.9580414386468,11488.909703809768,4094.934721279478,217.0,4.725118127953199
190,478.2403785394968,11591.18079919368,4093.930278080292,217.0,4.750118752968825
191,482.5224631807035,11693.42678039521,4092.9265714056414,217.0,4.77511937798445
192,486.8042960968093,11795.647665768862,4091.9235989340077,217.0,4.8001200030000755
193,491.0858780201828,11897.843473624438,4090.921358350634,217.0,4.825120628015701
194,495.3672096810248,12000.014222212136,4089.9198473475044,217.0,4.850121253031326
195,499.6482918073746,12102.159929715097,4088.9190636233247,217.0,4.875121878046952
196,503.9291251251156,12204.280614268035,4087.919004883501,217.0,4.900122503062577
197,508.2097103579809,12306.376293949783,4086.9196688401207,217.0,4.925123128078202
198,512.4900482275597,12408.446986775845,4085.9210532119323,217.0,4.950123753093828
199,516.7701394533029,12510.492710709572,4084.9231557243274,217.0,4.975124378109453
200,521.0499847525294,12612.513483650982,4083.9259741093183,217.0,5.000125003125079
201,525.3295848404308,12714.509323451668,4082.929506105521,217.0,5.025125628140704
202,529.6089404300785,12816.480247903615,4081.9337494581346,217.0,5.050126253156329
203,533.8880522324289,12918.426274739206,4080.9387019189207,217.0,5.075126878171955
204,538.166920956329,13020.347421638668,4079.944361246186,217.0,5.10012750318758
205,542.4455473085226,13122.243706226349,4078.950725204763,217.0,5.1251281282032055
206,546.7239319936554,13224.115146070719,4077.957791565989,217.0,5.150128753218831
207,551.0020757142817,13325.961758680642,4076.965558107688,217.0,5.175129378234456
208,555.2799791708693,13427.783561512828,4075.974022614153,217.0,5.200130003250082
209,559.5576430618056,13529.580571971834,4074.983182876123,217.0,5.225130628265707
210,563.8350680834028,13631.35280740261,4073.993036690769,217.0,5.2501312532813325
211,568.1122549299042,13733.100285090506,4073.003581861671,217.0,5.275131878296958
212,572.3892042934898,13834.823022283614,4072.0148161988027,217.0,5.300132503312583
213,576.6659168642813,13936.521036148071,4071.026737518509,217.0,5.325133128328209
214,580.9423933303481,14038.194343820214,4070.0393436434906,217.0,5.350133753343834
215,585.218634377713,14139.842962376773,4069.0526324027837,217.0,5.375134378359459
216,589.4946406903578,14241.46690883115,4068.0666016317414,217.0,5.400135003375085
217,593.7704129502289,14343.066200144589,4067.0812491720158,217.0,5.42513562839071
218,598.0459518372421,14444.64085323736,4066.0965728715396,217.0,5.450136253406336
