,distance,altitude,velocity,mass,time
0,0.0,0.0,0.0,1534.0,0.0
1,4.422862678752865,0.5396432653069496,89.32492915168413,1534.0,0.1000100010001
2,17.775710968377247,2.1719263941049576,179.94795442971827,1490.857142857143,0.2000200020002
3,40.22212638903467,4.665040038526058,271.97631426027596,1490.857142857143,0.3000300030003
4,71.92376047910439,7.80915055051446,365.40556566598326,1447.7142857142858,0.4000400040004
5,113.02772492824216,11.5223170183599,460.2647554823035,1447.7142857142858,0.5000500050005
6,163.68236691333558,15.742949295789003,556.588073234244,1404.5714285714287,0.6000600060006
7,224.0384594084512,20.422070242464542,654.4111581204054,1404.5714285714287,0.7000700070007
8,294.2495724771284,25.519265860319138,753.7674838617488,1361.4285714285716,0.8000800080008
9,374.47189261160236,31.000277996063232,854.6850973918699,1361.4285714285716,0.9000900090009001
10,464.8639011196918,36.83546098321676,957.1873195325311,1318.2857142857144,1.000100010001
11,565.5856693071288,42.99871353432536,1061.2875753743272,1318.2857142857144,1.1001100110011
12,676.7989481357488,49.46676590666175,1167.0304529524144,1275.1428571428573,1.2001200120012
13,798.6788790075722,56.219311852008104,1274.6298254330727,1275.1428571428573,1.3001300130013
14,931.4134005653899,63.23851504549384,1384.0888459995238,1232.0000000000002,1.4001400140014
15,1075.1897126870385,70.50791874527931,1495.440637204199,1232.0000000000002,1.5001500150015001
16,1230.200340014254,78.01254069060087,1608.7458913752196,1188.8571428571431,1.6001600160016
17,1396.644307420225,85.73872651904821,1724.0747607515955,1188.8571428571431,1.7001700170017
18,1574.7277967374455,93.67400836572051,1841.5005600560696,1145.714285714286,1.8001800180018002
19,1764.6643136921628,101.80696707591414,1961.09717605541,1145.714285714286,1.9001900190019
20,1966.6750152763602,110.1271237321198,2082.9451979588034,1102.571428571429,2.000200020002
21,2180.9892658809645,118.62485790997744,2207.1283939372606,1102.571428571429,2.1002100210021
22,2407.8451232130765,127.29133521020412,2333.7373010909155,1059.4285714285718,2.2002200220022
23,2647.489809991536,136.11844496056437,2462.865545796534,1059.4285714285718,2.3002300230023
24,2900.1803557692538,145.09875222668052,2594.6162730908604,1016.2857142857147,2.4002400240024
25,3166.1844711419617,154.22546446323395,2729.099494458228,1016.2857142857147,2.5002500250025
26,3445.7807417799327,163.4923794232309,2866.4215170566513,973.1428571428576,2.6002600260026
27,3739.2586942188373,172.89383474364877,3006.6992753927616,973.1428571428576,2.7002700270027002
28,4046.9203233006256,182.42470993846655,3150.0635284150308,930.0000000000005,2.8002800280028
29,4369.081157077632,192.08041374012828,3296.654520586175,930.0000000000005,2.9002900290029
30,4706.071253345325,201.856870431453,3446.6229413663427,886.8571428571433,3.0003000300030003
31,5058.236298112682,211.75051034614444,3600.13101080966,886.8571428571433,3.1003100310031
32,5425.938819631502,221.7582643777132,3757.35371164057,843.7142857142862,3.2003200320032
33,5809.559533829652,231.87756231799722,3918.480192140201,843.7142857142862,3.3003300330033003
34,6209.498839657504,242.10633499920368,4083.7153690383866,800.5714285714291,3.4003400340034
35,6626.1784860628695,252.44302036613226,4224.577579068841,800.5714285714291,3.5003500350035
36,7048.488331673528,262.6061504147947,4224.169575311855,793.380952380953,3.6003600360036003
37,7470.764729075371,272.4552983082831,4223.764099490702,793.380952380953,3.7003700370037
38,7892.964671910286,281.98951015621424,4222.500381016245,217.0,3.8003800380038
39,8315.045200414032,291.2078733071685,4221.239898817523,217.0,3.9003900390039004
40,8737.006409970905,300.1104733236134,4219.982641016662,217.0,4.000400040004
41,9158.848394752185,308.69739565998316,4218.7285957621225,217.0,4.1004100410041
42,9580.571247719028,316.968725617975,4217.477751228348,217.0,4.2004200420042
43,10002.17506062531,324.9245484098792,4216.230095615417,217.0,4.3004300430043
44,10423.659924020465,332.56494910642505,4214.985617148702,217.0,4.4004400440044
45,10845.025927252267,339.89001267775893,4213.744304078525,217.0,4.5004500450045
46,11266.273158469592,346.899823974818,4212.506144679812,217.0,4.6004600460046
47,11687.401704625165,353.59446773305535,4211.271127251763,217.0,4.7004700470047
48,12108.411651478238,359.9740285947919,4210.039240117506,217.0,4.8004800480048
49,12529.303083597282,366.0385910831392,4208.810471623762,217.0,4.9004900490049
50,12950.076084362621,371.78823963552713,4207.584810140515,217.0,5.000500050005
51,13370.73073596904,377.2230585590005,4206.362244060674,217.0,5.1005100510051005
52,13791.267119428365,382.34313210472465,4205.142761799741,217.0,5.2005200520052
53,14211.685314572032,387.1485443972051,4203.926351795484,217.0,5.3005300530053
54,14631.985400053576,391.63937947899103,4202.713002507607,217.0,5.4005400540054005
55,15052.167453351169,395.81572130322456,4201.502702417424,217.0,5.5005500550055
56,15472.231550770039,399.6776537410915,4200.295440027535,217.0,5.6005600560056
57,15892.17776744494,403.22526056692004,4199.091203861494,217.0,5.7005700570057005
58,16312.006177342537,406.4586254879832,4197.889982463499,217.0,5.8005800580058
59,16731.716853263795,409.3778321146965,4196.691764398062,217.0,5.9005900590059
60,17151.309866846317,411.9829639978707,4195.496538249692,217.0,6.0006000600060005
61,17570.785288566676,414.2741046063602,4194.304292622578,217.0,6.1006100610061
62,17990.14318774269,416.25133733451366,4193.115016140271,217.0,6.2006200620062
63,18409.383632535715,417.9147455058992,4191.92869744537,217.0,6.300630063006301
64,18828.506689952854,419.26441238448024,4190.745325199208,217.0,6.4006400640064
65,19247.512425849156,420.30042116343975,4189.564888081538,217.0,6.5006500650065
66,19666.400904929844,421.02285497635603,4188.387374790225,217.0,6.600660066006601
67,20085.172190752404,421.43179689720273,4187.212774040936,217.0,6.7006700670067
68,20503.82634572877,421.52732994034886,4186.041074566828,217.0,6.8006800680068
69,20922.364330848115,421.30953707173467,4184.872265118245,217.0,6.900690069006901
70,21340.78445820366,420.77850119769573,4183.706334462416,217.0,7.000700070007
71,21759.087638918147,419.93430517986417,4182.54327138314,217.0,7.1007100710071
72,22177.273928252525,418.7770318314433,4181.383064680492,217.0,7.200720072007201
73,22595.343388442514,417.306763920933,4180.225703170521,217.0,7.3007300730073
74,23013.29606488783,415.52358416840434,4179.071175684947,217.0,7.4007400740074
75,23431.132018702094,413.42757526412606,4177.9194710708625,217.0,7.500750075007501
76,23848.851302970834,411.01881985738873,4176.770578190436,217.0,7.6007600760076
77,24266.453973437507,408.2974005639553,4175.624485920617,217.0,7.7007700770077
78,24683.940070599278,405.26339995115995,4174.481183152837,217.0,7.800780078007801
79,25101.309653821038,401.91690057888627,4173.340658792718,217.0,7.9007900790079
80,25518.562765587445,398.25798496976495,4172.202901759782,217.0,8.000800080008
81,25935.699459040796,394.28673562034965,4171.067900987156,217.0,8.1008100810081
82,26352.71978241762,390.003235001117,4169.935645421279,217.0,8.2008200820082
83,26769.623775809825,385.40756556764245,4168.806124021629,217.0,8.3008300830083
84,27186.411482493957,380.49980975687504,4167.679325760412,217.0,8.4008400840084
85,27603.08295572013,375.2800499871373,4166.555239622294,217.0,8.5008500850085
86,28019.638223356935,369.74836866930127,4165.433854604106,217.0,8.6008600860086
87,28436.077332387846,363.90484819188714,4164.315159714563,217.0,8.7008700870087
88,28852.40033240587,357.74957094714046,4163.199143973984,217.0,8.8008800880088
89,29268.607247262287,351.2826193124056,4162.085796414001,217.0,8.9008900890089
90,29684.69812588344,344.5040756687522,4160.97510607729,217.0,9.000900090009
91,30100.672997038917,337.41402238979936,4159.86706201728,217.0,9.1009100910091
92,30516.531902500043,330.01254185289145,4158.7616532978855,217.0,9.2009200920092
93,30932.27486951457,322.2997164390981,4157.65886899322,217.0,9.3009300930093
94,31347.90193807026,314.2756285406649,4156.558698187322,217.0,9.4009400940094
95,31763.41313563417,305.94036054238677,4155.461129973888,217.0,9.5009500950095
96,32178.808499061186,297.2939948551357,4154.366153455984,217.0,9.6009600960096
97,32594.088053166783,288.3366138972342,4153.273757745785,217.0,9.7009700970097
98,33009.251830584464,279.06830010190606,4152.183931964297,217.0,9.8009800980098
99,33424.29985677206,269.48913591727614,4151.096665241086,217.0,9.900990099009901
100,33839.2321576184,259.59920382127166,4150.011946714011,217.0,10.00100010001
101,34254.04876083383,249.39858631044626,4148.929765528955,217.0,10.1010101010101
102,34668.749688848,238.8873658925295,4147.850110839552,217.0,10.201020102010201
103,35083.33496879885,228.06562512367964,4146.772971806929,217.0,10.3010301030103
104,35497.80462132919,216.93344657495618,4145.698337599431,217.0,10.4010401040104
105,35912.158667714284,205.49091285839677,4144.626197392366,217.0,10.501050105010501
106,36326.39712448644,193.7381066158414,4143.556540367731,217.0,10.6010601060106
107,36740.52001822241,181.67511051893234,4142.489355713958,217.0,10.7010701070107
108,37154.52735757423,169.30200730264187,4141.424632625645,217.0,10.801080108010801
109,37568.41917040153,156.6188797093928,4140.362360303305,217.0,10.9010901090109
110,37982.19546314479,143.62581055238843,4139.302527953095,217.0,11.001100110011
111,38395.85625608214,130.32288267835975,4138.245124786564,217.0,11.101110111011101
112,38809.40156259896,116.71017898619175,4137.190140020394,217.0,11.2011201120112
113,39222.83139202455,102.78778242319822,4136.1375628761425,217.0,11.3011301130113
114,39636.145758408624,88.5557759962976,4135.087382579987,217.0,11.401140114011401
115,40049.34467301271,74.01424276083708,4134.039588362467,217.0,11.5011501150115
116,40462.42814565139,59.16326583921909,4132.994169458236,217.0,11.6011601160116
117,40875.39618120644,44.002928391098976,4131.951115105802,217.0,11.701170117011701
118,41288.24878927019,28.533313676714897,4130.91041454728,217.0,11.8011801180118
119,41700.98597577204,12.75450498610735,4129.872057028139,217.0,11.9011901190119
120,42044.8470792955,-0.6262267306447029,4129.0085436749405,217.0,12.001200120012001
121,42044.8470792955,-0.6262267306447029,0.0,217.0,12.1012101210121
122,42044.8470792955,-0.6262267306447029,0.0,217.0,12.2012201220122
123,42044.8470792955,-0.6262267306447029,0.0,217.0,12.301230123012301
124,42044.8470792955,-0.6262267306447029,0.0,217.0,12.4012401240124
125,42044.8470792955,-0.6262267306447029,0.0,217.0,12.5012501250125
126,42044.8470792955,-0.6262267306447029,0.0,217.0,12.601260126012601
127,42044.8470792955,-0.6262267306447029,0.0,217.0,12.7012701270127
128,42044.8470792955,-0.6262267306447029,0.0,217.0,12.8012801280128
129,42044.8470792955,-0.6262267306447029,0.0,217.0,12.901290129012901
130,42044.8470792955,-0.6262267306447029,0.0,217.0,13.001300130013
131,42044.8470792955,-0.6262267306447029,0.0,217.0,13.1013101310131
132,42044.8470792955,-0.6262267306447029,0.0,217.0,13.201320132013201
133,42044.8470792955,-0.6262267306447029,0.0,217.0,13.3013301330133
134,42044.8470792955,-0.6262267306447029,0.0,217.0,13.4013401340134
135,42044.8470792955,-0.6262267306447029,0.0,217.0,13.501350135013501
136,42044.8470792955,-0.6262267306447029,0.0,217.0,13.6013601360136
137,42044.8470792955,-0.6262267306447029,0.0,217.0,13.7013701370137
138,42044.8470792955,-0.6262267306447029,0.0,217.0,13.801380138013801
139,42044.8470792955,-0.6262267306447029,0.0,217.0,13.9013901390139
140,42044.8470792955,-0.6262267306447029,0.0,217.0,14.001400140014
141,42044.8470792955,-0.6262267306447029,0.0,217.0,14.101410141014101
142,42044.8470792955,-0.6262267306447029,0.0,217.0,14.2014201420142
143,42044.8470792955,-0.6262267306447029,0.0,217.0,14.3014301430143
144,42044.8470792955,-0.6262267306447029,0.0,217.0,14.401440144014401
145,42044.8470792955,-0.6262267306447029,0.0,217.0,14.5014501450145
146,42044.8470792955,-0.6262267306447029,0.0,217.0,14.6014601460146
147,42044.8470792955,-0.6262267306447029,0.0,217.0,14.701470147014701
148,42044.8470792955,-0.6262267306447029,0.0,217.0,14.8014801480148
149,42044.8470792955,-0.6262267306447029,0.0,217.0,14.9014901490149
150,42044.8470792955,-0.6262267306447029,0.0,217.0,15.001500150015001
151,42044.8470792955,-0.6262267306447029,0.0,217.0,15.1015101510151
152,42044.8470792955,-0.6262267306447029,0.0,217.0,15.2015201520152
153,42044.8470792955,-0.6262267306447029,0.0,217.0,15.301530153015301
154,42044.8470792955,-0.6262267306447029,0.0,217.0,15.4015401540154
155,42044.8470792955,-0.6262267306447029,0.0,217.0,15.5015501550155
156,42044.8470792955,-0.6262267306447029,0.0,217.0,15.601560156015601
157,42044.8470792955,-0.6262267306447029,0.0,217.0,15.7015701570157
158,42044.8470792955,-0.6262267306447029,0.0,217.0,15.8015801580158
159,42044.8470792955,-0.6262267306447029,0.0,217.0,15.901590159015901
160,42044.8470792955,-0.6262267306447029,0.0,217.0,16.001600160016
161,42044.8470792955,-0.6262267306447029,0.0,217.0,16.1016101610161
162,42044.8470792955,-0.6262267306447029,0.0,217.0,16.2016201620162
163,42044.8470792955,-0.6262267306447029,0.0,217.0,16.301630163016302
164,42044.8470792955,-0.6262267306447029,0.0,217.0,16.4016401640164
165,42044.8470792955,-0.6262267306447029,0.0,217.0,16.5016501650165
166,42044.8470792955,-0.6262267306447029,0.0,217.0,16.6016601660166
167,42044.8470792955,-0.6262267306447029,0.0,217.0,16.7016701670167
168,42044.8470792955,-0.6262267306447029,0.0,217.0,16.8016801680168
169,42044.8470792955,-0.6262267306447029,0.0,217.0,16.901690169016902
170,42044.8470792955,-0.6262267306447029,0.0,217.0,17.001700170017
171,42044.8470792955,-0.6262267306447029,0.0,217.0,17.1017101710171
172,42044.8470792955,-0.6262267306447029,0.0,217.0,17.2017201720172
173,42044.8470792955,-0.6262267306447029,0.0,217.0,17.3017301730173
174,42044.8470792955,-0.6262267306447029,0.0,217.0,17.4017401740174
175,42044.8470792955,-0.6262267306447029,0.0,217.0,17.501750175017502
176,42044.8470792955,-0.6262267306447029,0.0,217.0,17.6017601760176
177,42044.8470792955,-0.6262267306447029,0.0,217.0,17.7017701770177
178,42044.8470792955,-0.6262267306447029,0.0,217.0,17.8017801780178
179,42044.8470792955,-0.6262267306447029,0.0,217.0,17.9017901790179
180,42044.8470792955,-0.6262267306447029,0.0,217.0,18.001800180018
181,42044.8470792955,-0.6262267306447029,0.0,217.0,18.101810181018102
182,42044.8470792955,-0.6262267306447029,0.0,217.0,18.2018201820182
183,42044.8470792955,-0.6262267306447029,0.0,217.0,18.3018301830183
184,42044.8470792955,-0.6262267306447029,0.0,217.0,18.4018401840184
185,42044.8470792955,-0.6262267306447029,0.0,217.0,18.5018501850185
186,42044.8470792955,-0.6262267306447029,0.0,217.0,18.6018601860186
187,42044.8470792955,-0.6262267306447029,0.0,217.0,18.701870187018702
188,42044.8470792955,-0.6262267306447029,0.0,217.0,18.8018801880188
189,42044.8470792955,-0.6262267306447029,0.0,217.0,18.9018901890189
190,42044.8470792955,-0.6262267306447029,0.0,217.0,19.001900190019
191,42044.8470792955,-0.6262267306447029,0.0,217.0,19.1019101910191
192,42044.8470792955,-0.6262267306447029,0.0,217.0,19.2019201920192
193,42044.8470792955,-0.6262267306447029,0.0,217.0,19.301930193019302
194,42044.8470792955,-0.6262267306447029,0.0,217.0,19.4019401940194
195,42044.8470792955,-0.6262267306447029,0.0,217.0,19.5019501950195
196,42044.8470792955,-0.6262267306447029,0.0,217.0,19.6019601960196
197,42044.8470792955,-0.6262267306447029,0.0,217.0,19.7019701970197
198,42044.8470792955,-0.6262267306447029,0.0,217.0,19.801980198019802
199,42044.8470792955,-0.6262267306447029,0.0,217.0,19.901990199019902
200,42044.8470792955,-0.6262267306447029,0.0,217.0,20.00200020002
201,42044.8470792955,-0.6262267306447029,0.0,217.0,20.1020102010201
202,42044.8470792955,-0.6262267306447029,0.0,217.0,20.2020202020202
203,42044.8470792955,-0.6262267306447029,0.0,217.0,20.3020302030203
204,42044.8470792955,-0.6262267306447029,0.0,217.0,20.402040204020402
205,42044.8470792955,-0.6262267306447029,0.0,217.0,20.502050205020502
206,42044.8470792955,-0.6262267306447029,0.0,217.0,20.6020602060206
207,42044.8470792955,-0.6262267306447029,0.0,217.0,20.7020702070207
208,42044.8470792955,-0.6262267306447029,0.0,217.0,20.8020802080208
209,42044.8470792955,-0.6262267306447029,0.0,217.0,20.9020902090209
210,42044.8470792955,-0.6262267306447029,0.0,217.0,21.002100210021002
211,42044.8470792955,-0.6262267306447029,0.0,217.0,21.102110211021103
212,42044.8470792955,-0.6262267306447029,0.0,217.0,21.2021202120212
213,42044.8470792955,-0.6262267306447029,0.0,217.0,21.3021302130213
214,42044.8470792955,-0.6262267306447029,0.0,217.0,21.4021402140214
215,42044.8470792955,-0.6262267306447029,0.0,217.0,21.5021502150215
216,42044.8470792955,-0.6262267306447029,0.0,217.0,21.602160216021602
217,42044.8470792955,-0.6262267306447029,0.0,217.0,21.702170217021703
218,42044.8470792955,-0.6262267306447029,0.0,217.0,21.8021802180218
219,42044.8470792955,-0.6262267306447029,0.0,217.0,21.9021902190219
220,42044.8470792955,-0.6262267306447029,0.0,217.0,22.002200220022
221,42044.8470792955,-0.6262267306447029,0.0,217.0,22.1022102210221
222,42044.8470792955,-0.6262267306447029,0.0,217.0,22.202220222022202
223,42044.8470792955,-0.6262267306447029,0.0,217.0,22.302230223022303
224,42044.8470792955,-0.6262267306447029,0.0,217.0,22.4022402240224
225,42044.8470792955,-0.6262267306447029,0.0,217.0,22.5022502250225
226,42044.8470792955,-0.6262267306447029,0.0,217.0,22.6022602260226
227,42044.8470792955,-0.6262267306447029,0.0,217.0,22.7022702270227
228,42044.8470792955,-0.6262267306447029,0.0,217.0,22.802280228022802
229,42044.8470792955,-0.6262267306447029,0.0,217.0,22.902290229022903
230,42044.8470792955,-0.6262267306447029,0.0,217.0,23.002300230023
231,42044.8470792955,-0.6262267306447029,0.0,217.0,23.1023102310231
232,42044.8470792955,-0.6262267306447029,0.0,217.0,23.2023202320232
233,42044.8470792955,-0.6262267306447029,0.0,217.0,23.3023302330233
234,42044.8470792955,-0.6262267306447029,0.0,217.0,23.402340234023402
235,42044.8470792955,-0.6262267306447029,0.0,217.0,23.502350235023503
236,42044.8470792955,-0.6262267306447029,0.0,217.0,23.6023602360236
237,42044.8470792955,-0.6262267306447029,0.0,217.0,23.7023702370237
238,42044.8470792955,-0.6262267306447029,0.0,217.0,23.8023802380238
239,42044.8470792955,-0.6262267306447029,0.0,217.0,23.9023902390239
240,42044.8470792955,-0.6262267306447029,0.0,217.0,24.002400240024002
241,42044.8470792955,-0.6262267306447029,0.0,217.0,24.102410241024103
242,42044.8470792955,-0.6262267306447029,0.0,217.0,24.2024202420242
243,42044.8470792955,-0.6262267306447029,0.0,217.0,24.3024302430243
244,42044.8470792955,-0.6262267306447029,0.0,217.0,24.4024402440244
245,42044.8470792955,-0.6262267306447029,0.0,217.0,24.5024502450245
246,42044.8470792955,-0.6262267306447029,0.0,217.0,24.602460246024602
247,42044.8470792955,-0.6262267306447029,0.0,217.0,24.702470247024703
248,42044.8470792955,-0.6262267306447029,0.0,217.0,24.8024802480248
249,42044.8470792955,-0.6262267306447029,0.0,217.0,24.9024902490249
250,42044.8470792955,-0.6262267306447029,0.0,217.0,25.002500250025
251,42044.8470792955,-0.6262267306447029,0.0,217.0,25.1025102510251
252,42044.8470792955,-0.6262267306447029,0.0,217.0,25.202520252025202
253,42044.8470792955,-0.6262267306447029,0.0,217.0,25.302530253025303
254,42044.8470792955,-0.6262267306447029,0.0,217.0,25.4025402540254
255,42044.8470792955,-0.6262267306447029,0.0,217.0,25.5025502550255
256,42044.8470792955,-0.6262267306447029,0.0,217.0,25.6025602560256
257,42044.8470792955,-0.6262267306447029,0.0,217.0,25.7025702570257
258,42044.8470792955,-0.6262267306447029,0.0,217.0,25.802580258025802
259,42044.8470792955,-0.6262267306447029,0.0,217.0,25.9025902590259
260,42044.8470792955,-0.6262267306447029,0.0,217.0,26.002600260026
261,42044.8470792955,-0.6262267306447029,0.0,217.0,26.1026102610261
262,42044.8470792955,-0.6262267306447029,0.0,217.0,26.2026202620262
