,distance,altitude,velocity,mass,time
0,0.0,0.0,0.0,1534.0,0.0
1,0.17169993305413522,0.20971152186393738,21.695871852539366,1534.0,0.025000625015625392
2,0.6876077410645896,0.8398803323507309,43.47060635388494,1523.2142857142858,0.050001250031250784
3,1.5489416672687506,1.8920658342540264,65.32474788991301,1523.2142857142858,0.07500187504687618
4,2.7605089714508533,3.3649693615734577,87.26487310699532,1512.4285714285716,0.10000250006250157
5,4.332316537214438,5.253104846924543,109.28951633171903,1512.4285714285716,0.12500312507812697
6,6.267966322185341,7.5561052821576595,131.39770394085932,1501.6428571428573,0.15000375009375236
7,8.570652450419086,10.273944415152073,153.5896053353033,1501.6428571428573,0.17500437510937775
8,11.243295385453846,13.406833343207836,175.86550687334602,1490.8571428571431,0.20000500012500314
9,14.28861914828295,16.95516001433134,198.22577015034815,1490.8571428571431,0.22500562514062852
10,17.70920084195687,20.919450260698795,220.67080891224526,1480.071428571429,0.25000625015625394
11,21.507504348332667,25.30034116655588,243.20107522655627,1480.071428571429,0.27500687517187933
12,25.68590431145822,30.09856203943491,265.81705069157067,1469.2857142857147,0.3000075001875047
13,30.24670382561943,35.31492039933801,288.51924058433855,1469.2857142857147,0.3250081252031301
14,35.1921478627626,40.95029131323099,311.3081698193624,1458.5000000000005,0.3500087502187555
15,40.524433712914536,47.00560909509659,334.18438007364165,1458.5000000000005,0.3750093752343809
16,46.245719268281825,53.481860771775246,357.1484276912488,1447.7142857142862,0.40001000025000627
17,52.358129711737,60.38008081167936,380.2008821253982,1447.7142857142862,0.42501062526563166
18,58.86376299935078,67.701346822083,403.34232476115676,1436.928571428572,0.45001125028125705
19,65.76469441462548,75.44677600637078,426.57334801405,1436.928571428572,0.47501187529688244
20,73.0629803338885,83.61752212420106,449.8945429191976,1426.1428571428578,0.5000125003125079
21,80.76066124042232,92.2147727496922,473.30650485521716,1426.1428571428578,0.5250131253281333
22,88.85976464183493,101.23974731937051,496.80984934802785,1415.3571428571436,0.5500137503437587
23,97.36230754679451,110.69369537383318,520.4051996094628,1415.3571428571436,0.575014375359384
24,106.27029835222866,120.57789481058717,544.0931578779337,1404.5714285714294,0.6000150003750094
25,115.58573828827183,130.89365008100867,567.874331868882,1404.5714285714294,0.6250156253906348
26,125.31062273290497,141.64229067415,591.7492779484259,1393.7857142857151,0.6500162504062602
27,135.4469419948257,152.82516941800714,615.7185790254844,1393.7857142857151,0.6750168754218856
28,145.99668293765708,164.443661917001,639.7828080641044,1383.000000000001,0.700017500437511
29,156.9618299670342,176.49916560947895,663.9425697458579,1383.000000000001,0.7250181254531364
30,168.3443664701043,188.99309950321913,688.1984466626576,1372.2142857142867,0.7500187504687618
31,180.14627265188037,201.92690017074347,712.5507564523565,1372.2142857142867,0.7750193754843872
32,192.3695259823868,215.30202075093985,737.0000455053785,1361.4285714285725,0.8000200005000125
33,205.0161039694949,229.11993265524507,761.5467839765051,1361.4285714285725,0.8250206255156379
34,218.08798178034348,243.3821217752993,786.1912991918712,1350.6428571428582,0.8500212505312633
35,231.58713385654443,258.0900891534984,810.9341168841634,1350.6428571428582,0.8750218755468887
36,245.51553638868705,273.2453526519239,835.7757777565672,1339.857142857144,0.9000225005625141
37,259.8751674440119,288.84944620355964,860.7167719115982,1339.857142857144,0.9250231255781395
38,274.66800340985714,304.9039151109755,885.7571419253896,1329.0714285714298,0.9500237505937649
39,289.8960156515405,321.4103116430342,910.8971768581558,1329.0714285714298,0.9750243756093903
40,305.56117794076454,338.3702024035156,936.137423968226,1318.2857142857156,1.0000250006250158
41,321.66546598259174,355.78516717627645,961.4781561103483,1318.2857142857156,1.0250256256406411
42,338.21084999844084,373.6567903012037,986.9191819382356,1307.5000000000014,1.0500262506562665
43,355.1992956458392,391.9866611249745,1012.4607615226445,1307.5000000000014,1.075026875671892
44,372.6327688606189,410.7763787470758,1038.1031811709006,1296.7142857142871,1.1000275006875173
45,390.51323580114297,430.02755147218704,1063.846709485134,1296.7142857142871,1.1250281257031427
46,408.8426627641096,449.741796258837,1089.6918426075645,1285.928571428573,1.150028750718768
47,427.6230449169722,469.92076924070716,1115.6419656062644,1285.928571428573,1.1750293757343935
48,446.8564276638201,490.5661881528795,1141.6997142162215,1275.1428571428587,1.2000300007500189
49,466.54490869502,511.67983404546976,1167.870142087008,1275.1428571428587,1.2250306257656443
50,486.6907303074419,533.2636497355998,1194.1647258482917,1264.3571428571445,1.2500312507812696
51,507.2962514593486,555.3197092115879,1220.582054195054,1264.3571428571445,1.275031875796895
52,528.3637190191156,577.8499722480774,1247.1165048334801,1253.5714285714303,1.3000325008125204
53,549.8953363556485,600.8563577830791,1273.7667098459915,1253.5714285714303,1.3250331258281458
54,571.8932899770734,624.340772267431,1300.5329823565517,1242.785714285716,1.3500337508437712
55,594.3597767511186,648.3051385097206,1327.4160130793719,1242.785714285716,1.3750343758593966
56,617.2969978813803,672.751389041543,1354.416172577175,1232.0000000000018,1.400035000875022
57,640.7071654107683,697.6814728192985,1381.5346040802174,1232.0000000000018,1.4250356258906474
58,664.5925095050077,723.0973627492785,1408.7724519376482,1221.2142857142876,1.4500362509062728
59,688.9552761502401,749.0010530389845,1436.1306666744767,1221.2142857142876,1.4750368759218981
60,713.7977227002821,775.3945542387664,1463.6099518804604,1210.4285714285734,1.5000375009375235
61,739.1221191863134,802.2798944599926,1491.2113295407592,1210.4285714285734,1.525038125953149
62,764.9307517629971,829.6591228432953,1518.9358637770802,1199.6428571428592,1.5500387509687743
63,791.2259230741533,857.5343097820878,1546.7846349994663,1199.6428571428592,1.5750393759843997
64,818.0099529400044,885.9075474590063,1574.7588040922114,1188.857142857145,1.600040001000025
65,845.285180186725,914.7809516489506,1602.8595646938036,1188.857142857145,1.6250406260156505
66,873.0539610974957,944.1566599048674,1631.0880006453758,1178.0714285714307,1.6500412510312759
67,901.3186696748868,974.0368316844106,1659.445267854562,1178.0714285714307,1.6750418760469012
68,930.0816984040885,1004.4236490279436,1687.9325411094999,1167.2857142857165,1.7000425010625266
69,959.3454586403531,1035.3193168230355,1716.551013952254,1167.2857142857165,1.725043126078152
70,989.1123810005535,1066.726063080132,1745.3018990768105,1156.5000000000023,1.7500437510937774
71,1019.3849157592028,1098.6461392454803,1774.1864287377405,1156.5000000000023,1.7750443761094028
72,1050.1655332492778,1131.0818204768002,1803.2058498799333,1145.714285714288,1.8000450011250282
73,1081.4567228924825,1164.0354045182467,1832.3612365861948,1145.714285714288,1.8250456261406536
74,1113.2609909653374,1197.5092092491686,1861.653713204202,1134.9285714285738,1.850046251156279
75,1145.5808637671842,1231.5055758953094,1891.084566347902,1134.9285714285738,1.8750468761719044
76,1178.418888813634,1266.0268701910973,1920.6551031787933,1124.1428571428596,1.9000475011875297
77,1211.7776352445699,1301.075482711196,1950.3666518454784,1124.1428571428596,1.9250481262031551
78,1245.6596942382025,1336.653829202056,1980.220561935001,1113.3571428571454,1.9500487512187805
79,1280.067679431496,1372.7643509320915,2010.218204936317,1113.3571428571454,1.975049376234406
80,1315.0042273472577,1409.4095150604844,2040.3609554696775,1102.5714285714312,2.0000500012500315
81,1350.4719957970199,1446.5918128490448,2070.6500303552734,1102.5714285714312,2.025050626265657
82,1386.4736641045977,1484.3137598410249,2101.086831303242,1091.785714285717,2.0500512512812823
83,1423.01193548143,1522.5778982453048,2131.6728042049704,1091.785714285717,2.0750518762969077
84,1460.0895374845672,1561.3867973685265,2162.4094186059237,1081.0000000000027,2.100052501312533
85,1497.7092224681749,1600.7430539689958,2193.2981682251466,1081.0000000000027,2.1250531263281585
86,1535.8737680431143,1640.6492927111685,2224.3405714889795,1070.2142857142885,2.150053751343784
87,1574.5859775449192,1681.1081665307283,2255.538164098714,1070.2142857142885,2.1750543763594092
88,1613.8486790546071,1722.12235558033,2286.8923258544532,1059.4285714285743,2.2000550013750346
89,1653.6647238751998,1763.694565538317,2318.4045203968435,1059.4285714285743,2.22505562639066
90,1694.0369895143497,1805.8275307044387,2350.076348374462,1048.64285714286,2.2500562514062854
91,1734.96838077112,1848.5240150168538,2381.909437123853,1048.64285714286,2.275056876421911
92,1776.4618302344045,1891.786812555045,2413.905441267872,1037.8571428571458,2.300057501437536
93,1818.5202987911666,1935.618747960776,2446.066043330738,1037.8571428571458,2.3250581264531616
94,1861.1467761448282,1980.0226769633591,2478.392954370327,1027.0714285714316,2.350058751468787
95,1904.3442813441536,2025.0014868453145,2510.8879146282834,1027.0714285714316,2.3750593764844123
96,1948.1158633229838,2070.558096949011,2543.5526941985468,1016.2857142857173,2.4000600015000377
97,1992.4646014511725,2116.6954591982067,2576.389093714906,1016.2857142857173,2.425060626515663
98,2037.3936060970996,2163.4165586195886,2609.398945058231,1005.500000000003,2.4500612515312885
99,2082.9060192021416,2210.724413897842,2642.5841120840464,1005.500000000003,2.475061876546914
100,2129.0050148674873,2258.6220779269934,2675.9464913711404,994.7142857142886,2.5000625015625393
101,2175.693799953702,2307.112638376653,2709.4879696124544,994.7142857142886,2.5250631265781647
102,2222.975608707164,2356.1992120593786,2743.2098199416723,983.9285714285743,2.55006375159379
103,2270.8536985892247,2405.8849405758083,2777.1136974349342,983.9285714285743,2.5750643766094155
104,2319.3313591669944,2456.172999482602,2811.2015701754763,973.14285714286,2.600065001625041
105,2368.411914102181,2507.0666003115475,2845.4754403451293,973.14285714286,2.6250656266406662
106,2418.0987217725046,2558.56899118796,2879.9373450211397,962.3571428571456,2.6500662516562916
107,2468.3951759068404,2610.6834574118257,2914.5893569962504,962.3571428571456,2.675066876671917
108,2519.304706234531,2663.4133221171796,2949.4335856228636,951.5714285714313,2.7000675016875424
109,2570.8307791493135,2716.761946890503,2984.472177682117,951.5714285714313,2.725068126703168
110,2622.976898388323,2770.732732437551,3019.7073182787717,940.785714285717,2.750068751718793
111,2675.7466057266483,2825.329119268805,3055.141231762812,940.785714285717,2.7750693767344186
112,2729.143481687936,2880.5545883774757,3090.7761826787246,930.0000000000026,2.800070001750044
113,2783.1711462715475,2936.4126619510353,3126.61447674345,930.0000000000026,2.8250706267656693
114,2837.833259696799,2992.906904116273,3162.658461854036,919.2142857142883,2.8500712517812947
115,2893.1335231648213,3050.0409216731787,3198.9105291260935,919.2142857142883,2.87507187679692
116,2949.0756796386227,3107.8183648474514,3235.3731139641613,908.428571428574,2.9000725018125455
117,3005.6635146419,3166.2429281026125,3272.0486971651762,908.428571428574,2.925073126828171
118,3062.900857077246,3225.318350933492,3308.939806056263,897.6428571428596,2.9500737518437963
119,3120.791580064349,3285.048418674618,3346.0490156681353,897.6428571428596,2.9750743768594217
120,3179.3396017988307,3345.4369633868337,3383.37894994544,886.8571428571453,3.000075001875047
121,3238.548886432419,3406.487864688039,3420.9322829954417,886.8571428571453,3.0250756268906724
122,3298.4234449751225,3468.20505066216,3458.711740376515,876.0714285714309,3.050076251906298
123,3358.9673362201447,3530.592498783022,3496.720100427954,876.0714285714309,3.075076876921923
124,3420.1846676922833,3593.654236841947,3534.9601956427086,865.2857142857166,3.1000775019375486
125,3482.0795966205906,3657.394343920052,3573.434914084699,865.2857142857166,3.125078126953174
126,3544.656330936103,3721.816951364279,3612.147200852454,854.5000000000023,3.1500787519687994
127,3607.91913029547,3786.9262438341975,3651.100059590902,854.5000000000023,3.1750793769844248
128,3671.8723071313657,3852.7264603190124,3690.2965540532036,843.7142857142879,3.20008000200005
129,3736.520227730577,3919.2218952178955,3729.7398097146292,843.7142857142879,3.2250806270156755
130,3801.867313340703,3986.416899461299,3769.4330154405693,832.9285714285736,3.250081252031301
131,3867.9180413064637,4054.3158816099167,3809.3794252108546,832.9285714285736,3.2750818770469263
132,3934.6769462366024,4122.923309046775,3849.58235990268,822.1428571428593,3.3000825020625517
133,4002.148621202465,4192.2437091730535,3890.0452091345255,822.1428571428593,3.325083127078177
134,4070.337718969349,4262.281670611352,3930.7714331735906,811.3571428571449,3.3500837520938025
135,4139.248953261748,4333.041844509542,3971.76456490937,811.3571428571449,3.375084377109428
136,4208.887100063719,4404.528945803642,4013.028211896138,800.5714285714306,3.4000850021250533
137,4279.256998955573,4476.747754588723,4054.566058467234,800.5714285714306,3.4250856271406787
138,4350.36355448822,4549.703117456287,4096.381867924194,789.7857142857163,3.450086252156304
139,4422.211737596479,4623.399948954582,4138.479484803916,789.7857142857163,3.4750868771719294
140,4494.806587052796,4697.843233011663,4173.667052879533,780.7976190476211,3.500087502187555
141,4567.649993621189,4772.52208988741,4173.020290158561,780.7976190476211,3.52508812720318
142,4640.491636883717,4847.179827049375,4172.373782332487,780.7976190476211,3.5500887522188056
143,4713.329912964057,4921.814801272005,4171.543518947683,780.7976190476211,3.575089377234431
144,4786.163223252082,4996.425375238061,4170.713983811876,217.0,3.6000900022500564
145,4858.991578718596,5071.011561263353,4169.8851753719355,217.0,3.6250906272656818
146,4931.814990309405,5145.573371637613,4169.057092078615,217.0,3.650091252281307
147,5004.633468945373,5220.11081860587,4168.229732386537,217.0,3.6750918772969325
148,5077.447025522475,5294.623914390802,4167.403094754181,217.0,3.700092502312558
149,5150.255670911865,5369.112671185285,4166.57717764388,217.0,3.7250931273281833
150,5223.059415959924,5443.57710114494,4165.7519795218,217.0,3.7500937523438087
151,5295.8582714883205,5518.017216399312,4164.927498857942,217.0,3.775094377359434
152,5368.652248294073,5592.4330290444195,4164.103734126119,217.0,3.8000950023750595
153,5441.441357149599,5666.824551157653,4163.280683803958,217.0,3.825095627390685
154,5514.225608802779,5741.1917947642505,4162.458346372881,217.0,3.8500962524063103
155,5587.005013977011,5815.534771878272,4161.636720318101,217.0,3.8750968774219356
156,5659.779583371265,5889.853494480252,4160.815804128606,217.0,3.900097502437561
157,5732.549327660146,5964.147974509746,4159.995596297158,217.0,3.9250981274531864
158,5805.3142574939475,6038.418223883957,4159.176095320271,217.0,3.950098752468812
159,5878.074383498699,6112.664254494011,4158.357299698213,217.0,3.975099377484437
160,5950.829716276238,6186.886078197509,4157.539207934987,217.0,4.000100002500063
161,6023.580266404257,6261.083706818521,4156.721818538326,217.0,4.025100627515688
162,6096.326044436364,6335.257152151316,4155.905130019684,217.0,4.050101252531314
163,6169.067060902127,6409.4064259678125,4155.0891408942225,217.0,4.075101877546939
164,6241.803326307149,6483.531540006399,4154.2738496808015,217.0,4.100102502562565
165,6314.534851133107,6557.632505971938,4153.4592549019735,217.0,4.12510312757819
166,6387.261645837815,6631.709335543215,4152.64535508397,217.0,4.150103752593815
167,6459.983720855274,6705.762040372938,4151.832148756693,217.0,4.175104377609441
168,6532.701086595737,6779.790632084012,4151.019634453704,217.0,4.200105002625066
169,6605.413753445755,6853.79512226209,4150.207810712219,217.0,4.2251056276406915
170,6678.121731768234,6927.775522466749,4149.396676073093,217.0,4.250106252656317
171,6750.825031902488,7001.731844238937,4148.586229080813,217.0,4.275106877671942
172,6823.523664164305,7075.6640990749,4147.776468283491,217.0,4.300107502687568
173,6896.217638845983,7149.572298455983,4146.96739223285,217.0,4.325108127703193
174,6968.906966216402,7223.456453815103,4146.158999484219,217.0,4.3501087527188185
175,7041.591656521061,7297.316576585174,4145.351288596519,217.0,4.375109377734444
176,7114.27171998215,7371.152678146958,4144.544258132256,217.0,4.400110002750069
177,7186.947166798589,7444.964769855142,4143.737906657513,217.0,4.425110627765695
178,7259.618007146091,7518.752863049507,4142.932232741939,217.0,4.45011125278132
179,7332.28425117721,7592.51696902886,4142.127234958739,217.0,4.475111877796945
180,7404.9459090214,7666.25709906593,4141.322911884666,217.0,4.500112502812571
181,7477.6029907850625,7739.9732644073665,4140.519262100012,217.0,4.525113127828196
182,7550.2555065516035,7813.66547627002,4139.7162841885975,217.0,4.550113752843822
183,7622.9034663814855,7887.333745844662,4138.913976737763,217.0,4.575114377859447
184,7695.546880312283,7960.9780842885375,4138.11233833836,217.0,4.600115002875072
185,7768.18575835873,8034.598502732813,4137.311367584741,217.0,4.625115627890698
186,7840.820110512772,8108.195012293756,4136.511063074753,217.0,4.650116252906323
187,7913.449946743633,8181.767624035478,4135.7114234097235,217.0,4.6751168779219485
188,7986.075276997843,8255.316349010915,4134.912447194458,217.0,4.700117502937574
189,8058.696111199314,8328.8411982432,4134.114133037223,217.0,4.725118127953199
190,8131.312459249382,8402.342182721943,4133.316479549745,217.0,4.750118752968825
191,8203.924331026856,8475.819313414395,4132.519485347197,217.0,4.77511937798445
192,8276.531736388075,8549.272601261735,4131.723149048189,217.0,4.8001200030000755
193,8349.134685166957,8622.702057164162,4130.927469274764,217.0,4.825120628015701
194,8421.73318717505,8696.107692018151,4130.132444652381,217.0,4.850121253031326
195,8494.32725220159,8769.489516671747,4129.338073809915,217.0,4.875121878046952
196,8566.91689001355,8842.847541950643,4128.54435537964,217.0,4.900122503062577
197,8639.502110355672,8916.181778661907,4127.751287997228,217.0,4.925123128078202
198,8712.082922950558,8989.492237571627,4126.958870301734,217.0,4.950123753093828
199,8784.659337498679,9062.778929438442,4126.167100935592,217.0,4.975124378109453
200,8857.231363678455,9136.041864965111,4125.375978544601,217.0,5.000125003125079
201,8929.799011146295,9209.281054858118,4124.5855017779195,217.0,5.025125628140704
202,9002.362289536637,9282.496509779245,4123.79566928806,217.0,5.050126253156329
203,9074.921208462025,9355.688240364194,4123.006479730871,217.0,5.075126878171955
204,9147.475777513137,9428.856257226318,4122.21793176554,217.0,5.10012750318758
205,9220.02600625884,9502.000570949167,4121.430024054575,217.0,5.1251281282032055
206,9292.571904246242,9575.121192093939,4120.642755263804,217.0,5.150128753218831
207,9365.113481000746,9648.218131192029,4119.8561240623585,217.0,5.175129378234456
208,9437.65074602609,9721.29139874503,4119.0701291226715,217.0,5.200130003250082
209,9510.183708804409,9794.34100523591,4118.284769120467,217.0,5.225130628265707
210,9582.712378796272,9867.366961114109,4117.500042734747,217.0,5.2501312532813325
211,9655.236765440743,9940.369276810437,4116.715948647792,217.0,5.275131878296958
212,9727.75687815542,10013.347962718457,4115.932485545145,217.0,5.300132503312583
213,9800.272726336496,10086.303029216826,4115.149652115608,217.0,5.325133128328209
214,9872.78431935879,10159.23448664695,4114.367447051227,217.0,5.350133753343834
215,9945.291666575818,10232.14234533906,4113.585869047294,217.0,5.375134378359459
216,10017.794777319823,10305.026615582407,4112.804916802329,217.0,5.400135003375085
217,10090.293660901838,10377.88730764389,4112.024589018076,217.0,5.42513562839071
218,10162.788326611724,10450.724431771785,4111.244884399493,217.0,5.450136253406336
219,10235.278783718226,10523.537998180836,4110.465801654748,217.0,5.475136878421961
